103.53741455	2.72549009
103.53741455	2.92156863
103.54134369	3.00000000
103.54565430	2.96078420
103.54958344	2.88235283
103.54958344	2.76470590
103.55371094	2.70588231
103.55773163	2.64705873
103.56191254	2.47058821
103.56191254	2.25490189
103.56601715	2.01960778
103.57023621	1.86274505
103.57414246	1.86274505
103.57836151	1.96078432
103.58235168	2.03921580
103.58235168	2.13725495
103.58650208	2.13725495
103.59066772	2.19607854
103.59476471	2.31372547
103.59476471	2.39215684
103.59877777	2.50980401
103.60278320	2.52941179
103.60692596	2.49019599
103.60692596	2.47058821
103.61115265	2.49019599
103.61515045	2.52941179
103.61945343	2.64705873
103.62342834	2.64705873
103.62746429	2.58823538
103.62746429	2.52941179
103.63162994	2.50980401
103.63578796	2.52941179
103.63973999	2.60784316
103.63973999	2.64705873
103.64395142	2.66666675
103.64791107	2.60784316
103.65200043	2.56862736
103.65200043	2.54901958
103.65631104	2.58823538
103.66020203	2.64705873
103.66426086	2.62745094
103.66836548	2.54901958
103.67247009	2.45098042
103.67247009	2.49019599
103.67655945	2.60784316
103.68064880	2.66666675
103.68470764	2.66666675
103.68470764	2.60784316
103.68888855	2.54901958
103.69293213	2.54901958
103.69710541	2.60784316
103.69710541	2.68627453
103.70155334	2.68627453
103.70532227	2.68627453
103.70532227	2.64705873
103.70934296	2.62745094
103.71379089	2.62745094
103.71784210	2.64705873
103.71784210	2.72549009
103.72164917	2.70588231
103.72566986	2.68627453
103.72993469	2.58823538
103.72993469	2.60784316
103.73389435	2.62745094
103.73815155	2.72549009
103.74213409	2.76470590
103.74213409	2.74509811
103.74613953	2.66666675
103.75034332	2.62745094
103.75034332	2.64705873
103.75444794	2.72549009
103.75850677	2.80392146
103.76261902	2.82352948
103.76261902	2.78431368
103.76661682	2.74509811
103.77090454	2.70588231
103.77490997	2.70588231
103.77490997	2.72549009
103.77896118	2.80392146
103.78302765	2.82352948
103.78726959	2.74509811
103.78726959	2.68627453
103.79129028	2.58823538
103.79536438	2.58823538
103.79536438	2.64705873
103.79941559	2.72549009
103.80360413	2.70588231
103.80765533	2.58823538
103.80765533	2.50980401
103.81175232	2.49019599
103.81582642	2.50980401
103.82002258	2.62745094
103.82002258	2.62745094
103.82397461	2.54901958
103.82818604	2.47058821
103.83217621	2.43137264
103.83217621	2.39215684
103.83637238	2.45098042
103.84041595	2.45098042
103.84041595	2.45098042
103.84458923	2.39215684
103.84865570	2.33333325
103.85279083	2.25490189
103.85279083	2.27450991
103.85683441	2.31372547
103.86103058	2.33333325
103.86518860	2.31372547
103.86518860	2.29411769
103.86945343	2.23529410
103.87339783	2.23529410
103.87738800	2.31372547
103.88143158	2.35294127
103.88563538	2.35294127
103.88563538	2.29411769
103.88973999	2.23529410
103.89369965	2.25490189
103.89781189	2.31372547
103.89781189	2.39215684
103.90192413	2.43137264
103.90597534	2.41176462
103.91007996	2.35294127
103.91007996	2.33333325
103.91418457	2.31372547
103.91828156	2.37254906
103.92235565	2.37254906
103.92643738	2.31372547
103.93053436	2.25490189
103.93053436	2.29411769
103.93455505	2.33333325
103.93876648	2.43137264
103.94283295	2.43137264
103.94283295	2.39215684
103.94702911	2.33333325
103.95128632	2.29411769
103.95516205	2.33333325
103.95516205	2.39215684
103.95919037	2.47058821
103.96349335	2.47058821
103.96775055	2.39215684
103.97144318	2.39215684
103.97563934	2.39215684
103.97563934	2.45098042
103.97975922	2.50980401
103.98400879	2.47058821
103.98792267	2.43137264
103.98792267	2.35294127
103.99192047	2.35294127
103.99599457	2.35294127
104.00013733	2.43137264
104.00013733	2.47058821
104.00440216	2.43137264
104.00849915	2.35294127
104.01252747	2.37254906
104.01647949	2.45098042
104.02068329	2.54901958
104.02068329	2.52941179
104.02479553	2.45098042
104.02902985	2.41176462
104.03301239	2.41176462
104.03301239	2.45098042
104.03711700	2.49019599
104.04109192	2.50980401
104.04530334	2.49019599
104.04530334	2.45098042
104.04927826	2.39215684
104.05347443	2.35294127
104.05750275	2.45098042
104.06159973	2.45098042
104.06571198	2.43137264
104.06571198	2.39215684
104.06980896	2.37254906
104.07390594	2.39215684
104.07796478	2.47058821
104.07796478	2.52941179
104.08210754	2.50980401
104.08614349	2.49019599
104.09040070	2.41176462
104.09040070	2.39215684
104.09461975	2.41176462
104.09851837	2.49019599
104.10258484	2.52941179
104.10667419	2.45098042
104.11091614	2.35294127
104.11091614	2.35294127
104.11483002	2.39215684
104.11902618	2.47058821
104.12315369	2.49019599
104.12315369	2.47058821
104.12715149	2.37254906
104.13132477	2.35294127
104.13542938	2.37254906
104.13542938	2.43137264
104.13954163	2.49019599
104.14347839	2.50980401
104.14768982	2.41176462
104.15173340	2.39215684
104.15588379	2.39215684
104.15588379	2.45098042
104.16015625	2.50980401
104.16409302	2.52941179
104.16845703	2.45098042
104.16845703	2.35294127
104.17220306	2.31372547
104.17629242	2.35294127
104.18035889	2.43137264
104.18035889	2.49019599
104.18460846	2.47058821
104.18885803	2.39215684
104.18885803	2.35294127
104.19271851	2.39215684
104.19726563	2.47058821
104.20099640	2.52941179
104.20099640	2.50980401
104.20516968	2.49019599
104.20937347	2.39215684
104.21320343	2.35294127
104.21320343	2.39215684
104.21750641	2.45098042
104.22135162	2.50980401
104.22544098	2.54901958
104.22544098	2.50980401
104.22939301	2.47058821
104.23380280	2.43137264
104.23380280	2.45098042
104.23785400	2.52941179
104.24177551	2.52941179
104.24585724	2.52941179
104.24585724	2.52941179
104.24996948	2.50980401
104.25422668	2.49019599
104.25852966	2.54901958
104.25852966	2.58823538
104.26226807	2.60784316
104.26628876	2.56862736
104.27045441	2.49019599
104.27045441	2.47058821
104.27456665	2.52941179
104.27867889	2.56862736
104.27867889	2.58823538
104.28289032	2.56862736
104.28687286	2.47058821
104.29106903	2.43137264
104.29106903	2.41176462
104.29508209	2.45098042
104.29924011	2.52941179
104.30336761	2.52941179
104.30336761	2.49019599
104.30740356	2.37254906
104.31147003	2.31372547
104.31568146	2.31372547
104.31568146	2.37254906
104.31965637	2.45098042
104.32397461	2.45098042
104.32397461	2.41176462
104.32814789	2.35294127
104.33210754	2.33333325
104.33609772	2.39215684
104.33609772	2.43137264
104.34012604	2.45098042
104.34436035	2.43137264
104.34851837	2.37254906
104.34851837	2.33333325
104.35244751	2.35294127
104.35658264	2.43137264
104.36066437	2.62745094
104.36508179	2.64705873
104.36890411	2.68627453
104.36890411	2.78431368
104.37291718	2.84313726
104.37701416	2.96078420
104.38121033	2.96078420
104.38121033	2.86274505
104.38523865	2.68627453
104.38932037	2.47058821
104.39338684	2.25490189
104.39338684	2.07843137
104.39768982	2.00000000
104.40163422	1.96078432
104.40586090	1.90196073
104.40995789	1.90196073
104.41388702	1.94117641
104.41388702	2.05882359
104.41796112	2.23529410
104.42211914	2.35294127
104.42620087	2.41176462
104.42620087	2.37254906
104.43030548	2.35294127
104.43445587	2.39215684
104.43857574	2.49019599
104.43857574	2.54901958
104.44257355	2.56862736
104.44678497	2.56862736
104.45092010	2.45098042
104.45522308	2.45098042
104.45899200	2.54901958
104.45899200	2.62745094
104.46297455	2.60784316
104.46709442	2.54901958
104.47130585	2.52941179
104.47130585	2.49019599
104.47536469	2.52941179
104.47943878	2.62745094
104.48352814	2.70588231
104.48352814	2.68627453
104.48762512	2.58823538
104.49181366	2.50980401
104.49578857	2.58823538
104.49990082	2.66666675
104.50410461	2.70588231
104.50410461	2.64705873
104.50807190	2.58823538
104.51211548	2.58823538
104.51641083	2.58823538
104.51641083	2.64705873
104.52043152	2.68627453
104.52441406	2.66666675
104.52859497	2.54901958
104.52859497	2.50980401
104.53263855	2.50980401
104.53687286	2.62745094
104.54093170	2.76470590
104.54502869	2.72549009
104.54917145	2.66666675
104.54917145	2.58823538
104.55319977	2.58823538
104.55730438	2.66666675
104.56138611	2.76470590
104.56138611	2.80392146
104.56546021	2.76470590
104.56999207	2.70588231
104.57395172	2.66666675
104.57395172	2.68627453
104.57803345	2.78431368
104.58192444	2.80392146
104.58593750	2.74509811
104.59007263	2.66666675
104.59412384	2.62745094
104.59412384	2.68627453
104.59835815	2.80392146
104.60239410	2.80392146
104.60651398	2.74509811
104.60651398	2.74509811
104.61060333	2.70588231
104.61466980	2.70588231
104.61872101	2.76470590
104.61872101	2.80392146
104.62274933	2.82352948
104.62687683	2.78431368
104.63111115	2.60784316
104.63527679	2.56862736
104.63925934	2.64705873
104.63925934	2.70588231
104.64328003	2.68627453
104.64739227	2.60784316
104.65149689	2.49019599
104.65149689	2.45098042
104.65561676	2.50980401
104.65969086	2.52941179
104.66375732	2.54901958
104.66375732	2.47058821
104.66789246	2.37254906
104.67200470	2.33333325
104.67200470	2.29411769
104.67604828	2.33333325
104.68016052	2.37254906
104.68441772	2.43137264
104.68441772	2.43137264
104.68841553	2.35294127
104.69252014	2.25490189
104.69664001	2.27450991
104.69664001	2.35294127
104.70066071	2.43137264
104.70478821	2.41176462
104.70885468	2.33333325
104.70885468	2.23529410
104.71289825	2.19607854
104.71707153	2.23529410
104.71707153	2.29411769
104.72132111	2.37254906
104.72532654	2.33333325
104.72962189	2.27450991
104.72962189	2.25490189
104.73346710	2.27450991
104.73790741	2.33333325
104.74156952	2.43137264
104.74156952	2.45098042
104.74562836	2.39215684
104.74990082	2.31372547
104.75395966	2.25490189
104.75395966	2.29411769
104.75794220	2.37254906
104.76201630	2.45098042
104.76201630	2.47058821
104.76625824	2.37254906
104.77029419	2.27450991
104.77435303	2.27450991
104.77435303	2.31372547
104.77843475	2.41176462
104.78249359	2.45098042
104.78667450	2.41176462
104.78667450	2.37254906
104.79081726	2.33333325
104.79482269	2.35294127
104.79896545	2.39215684
104.79896545	2.47058821
104.80306244	2.49019599
104.80725861	2.45098042
104.80725861	2.33333325
104.81130219	2.33333325
104.81533051	2.37254906
104.81955719	2.45098042
104.81955719	2.50980401
104.82348633	2.52941179
104.82756042	2.47058821
104.83164978	2.41176462
104.83164978	2.37254906
104.83580780	2.45098042
104.83993530	2.52941179
104.84410858	2.49019599
104.84815979	2.39215684
104.85227203	2.33333325
104.85227203	2.33333325
104.85632324	2.41176462
104.86035919	2.49019599
104.86443329	2.50980401
104.86443329	2.43137264
104.86878967	2.37254906
104.87270355	2.33333325
104.87679291	2.35294127
104.87679291	2.41176462
104.88085938	2.47058821
104.88529968	2.49019599
104.88902283	2.39215684
104.89312744	2.37254906
104.89736176	2.43137264
104.89736176	2.49019599
104.90136719	2.50980401
104.90547180	2.49019599
104.90962982	2.41176462
104.90962982	2.31372547
104.91359711	2.31372547
104.91775513	2.37254906
104.92183685	2.49019599
104.92183685	2.54901958
104.92588806	2.49019599
104.92996216	2.39215684
104.93421173	2.39215684
104.93834686	2.45098042
104.94228363	2.49019599
104.94228363	2.45098042
104.94666290	2.39215684
104.95085907	2.35294127
104.95471954	2.35294127
104.95471954	2.41176462
104.95880127	2.50980401
104.96286774	2.52941179
104.96689606	2.47058821
104.96689606	2.41176462
104.97095490	2.37254906
104.97512054	2.41176462
104.97930908	2.47058821
104.98329926	2.45098042
104.98744965	2.43137264
104.98744965	2.39215684
104.99147034	2.37254906
104.99554443	2.41176462
104.99967194	2.47058821
104.99967194	2.52941179
105.00376892	2.54901958
105.00796509	2.47058821
105.01197052	2.41176462
105.01197052	2.39215684
105.01620483	2.41176462
105.02017212	2.50980401
105.02431488	2.47058821
105.02843475	2.41176462
105.03245544	2.37254906
105.03245544	2.39215684
105.03661346	2.43137264
105.04062653	2.52941179
105.04473114	2.54901958
105.04473114	2.49019599
105.04881287	2.35294127
105.05300903	2.31372547
105.05704498	2.35294127
105.05704498	2.47058821
105.06111145	2.54901958
105.06521606	2.52941179
105.06933594	2.39215684
105.07341003	2.37254906
105.07752228	2.45098042
105.07752228	2.50980401
105.08155823	2.52941179
105.08573151	2.47058821
105.08983612	2.37254906
105.08983612	2.33333325
105.09388733	2.41176462
105.09819031	2.47058821
105.10221100	2.56862736
105.10221100	2.58823538
105.10613251	2.52941179
105.11029053	2.43137264
105.11466980	2.45098042
105.11854553	2.60784316
105.12262726	2.66666675
105.12262726	2.66666675
105.12671661	2.58823538
105.13071442	2.50980401
105.13488770	2.50980401
105.13488770	2.54901958
105.13903046	2.62745094
105.14302826	2.66666675
105.14721680	2.60784316
105.14721680	2.56862736
105.15158844	2.54901958
105.15533447	2.54901958
105.15533447	2.58823538
105.15939331	2.60784316
105.16350555	2.58823538
105.16771698	2.50980401
105.16771698	2.41176462
105.17172241	2.39215684
105.17581177	2.41176462
105.17997742	2.47058821
105.17997742	2.54901958
105.18412018	2.50980401
105.18816376	2.43137264
105.19229889	2.37254906
105.19229889	2.35294127
105.19631958	2.41176462
105.20046997	2.54901958
105.20046997	2.56862736
105.20444489	2.54901958
105.20862579	2.43137264
105.21283722	2.39215684
105.21283722	2.37254906
105.21687317	2.43137264
105.22086334	2.50980401
105.22500610	2.47058821
105.22500610	2.39215684
105.22904968	2.37254906
105.23326874	2.35294127
105.23744202	2.35294127
105.23744202	2.43137264
105.24127960	2.52941179
105.24542236	2.52941179
105.24542236	2.49019599
105.24974823	2.50980401
105.25363922	2.60784316
105.25797272	2.72549009
105.25797272	2.86274505
105.26181793	2.94117641
105.26586151	2.94117641
105.27005768	2.80392146
105.27005768	2.66666675
105.27433014	2.50980401
105.27847290	2.33333325
105.28250885	2.15686274
105.28250885	1.98039210
105.28638458	1.86274505
105.29051971	1.78431368
105.29051971	1.78431368
105.29460144	1.84313726
105.29870605	1.96078432
105.30284882	2.07843137
105.30284882	2.17647052
105.30691528	2.15686274
105.31098938	2.19607854
105.31512451	2.23529410
105.31512451	2.33333325
105.31944275	2.47058821
105.32338715	2.52941179
105.32745361	2.54901958
105.32745361	2.49019599
105.33161163	2.45098042
105.33567810	2.45098042
105.33567810	2.54901958
105.33965302	2.62745094
105.34384918	2.64705873
105.34786224	2.58823538
105.34786224	2.52941179
105.35213470	2.49019599
105.35620117	2.50980401
105.36024475	2.60784316
105.36024475	2.66666675
105.36434937	2.68627453
105.36838531	2.58823538
105.37258148	2.49019599
105.37667847	2.52941179
105.38097382	2.62745094
105.38097382	2.60784316
105.38468933	2.56862736
105.38880157	2.56862736
105.39288330	2.54901958
105.39288330	2.56862736
105.39697266	2.62745094
105.40133667	2.66666675
105.40518951	2.64705873
105.40518951	2.60784316
105.40925598	2.54901958
105.41345978	2.50980401
105.41747284	2.66666675
105.42166901	2.70588231
105.42571259	2.66666675
105.42571259	2.54901958
105.42977142	2.50980401
105.43388367	2.47058821
105.43811035	2.54901958
105.43811035	2.66666675
105.44210815	2.68627453
105.44627380	2.64705873
105.45038605	2.58823538
105.45038605	2.56862736
105.45438385	2.60784316
105.45845032	2.68627453
105.46259308	2.74509811
105.46678925	2.66666675
105.47075653	2.56862736
105.47075653	2.58823538
105.47485352	2.58823538
105.47898865	2.70588231
105.48301697	2.76470590
105.48301697	2.70588231
105.48735046	2.64705873
105.49124146	2.54901958
105.49536133	2.56862736
105.49536133	2.64705873
105.49940491	2.72549009
105.50358582	2.70588231
105.50764465	2.64705873
105.51172638	2.62745094
105.51583862	2.62745094
105.51583862	2.66666675
105.52006531	2.70588231
105.52397919	2.70588231
105.52813721	2.60784316
105.52813721	2.50980401
105.53232574	2.45098042
105.53636169	2.47058821
105.54040527	2.54901958
105.54040527	2.54901958
105.54443359	2.49019599
105.54853058	2.39215684
105.55270386	2.31372547
105.55685425	2.39215684
105.56085968	2.50980401
105.56085968	2.50980401
105.56491089	2.47058821
105.56963348	2.35294127
105.57341766	2.29411769
105.57341766	2.29411769
105.57754517	2.39215684
105.58155060	2.39215684
105.58550262	2.41176462
105.58550262	2.35294127
105.58988190	2.23529410
105.59397125	2.19607854
105.59800720	2.29411769
105.60182953	2.33333325
105.60614777	2.33333325
105.60614777	2.31372547
105.61048126	2.27450991
105.61407471	2.23529410
105.61834717	2.27450991
105.61834717	2.37254906
105.62232208	2.41176462
105.62641144	2.39215684
105.63047791	2.29411769
105.63047791	2.21568632
105.63471222	2.21568632
105.63898468	2.31372547
105.63898468	2.43137264
105.64302063	2.43137264
105.64722443	2.37254906
105.65132141	2.27450991
105.65132141	2.29411769
105.65565491	2.33333325
105.65950012	2.39215684
105.66345215	2.41176462
105.66345215	2.43137264
105.66751099	2.39215684
105.67169952	2.35294127
105.67575836	2.33333325
105.67575836	2.41176462
105.67973328	2.45098042
105.68386841	2.45098042
105.68386841	2.45098042
105.68792725	2.35294127
105.69210052	2.27450991
105.69596863	2.27450991
105.69596863	2.37254906
105.70011902	2.49019599
105.70420837	2.54901958
105.70816803	2.50980401
105.70816803	2.43137264
105.71227264	2.39215684
105.71642303	2.41176462
105.72055817	2.49019599
105.72055817	2.50980401
105.72460938	2.47058821
105.72875214	2.35294127
105.72875214	2.29411769
105.73273468	2.29411769
105.73696136	2.35294127
105.74102020	2.45098042
105.74102020	2.49019599
105.74510193	2.47058821
105.74917603	2.39215684
105.75335693	2.35294127
105.75335693	2.33333325
105.75728607	2.43137264
105.76139832	2.49019599
105.76563263	2.50980401
105.76563263	2.41176462
105.76972961	2.33333325
105.77369690	2.29411769
105.77369690	2.33333325
105.77793884	2.47058821
105.78205109	2.54901958
105.78617859	2.54901958
105.78617859	2.43137264
105.79032135	2.35294127
105.79441833	2.29411769
105.79840088	2.33333325
105.79840088	2.43137264
105.80255890	2.49019599
105.80657959	2.47058821
105.81072235	2.39215684
105.81072235	2.37254906
105.81485748	2.35294127
105.81917572	2.41176462
105.81917572	2.49019599
105.82306671	2.50980401
105.82712555	2.43137264
105.83123016	2.37254906
105.83123016	2.35294127
105.83532715	2.41176462
105.83936310	2.50980401
105.84357452	2.52941179
105.84357452	2.47058821
105.84762573	2.39215684
105.85171509	2.37254906
105.85582733	2.45098042
105.85992432	2.52941179
105.86402130	2.54901958
105.86402130	2.43137264
105.86808777	2.33333325
105.87217712	2.27450991
105.87631989	2.31372547
105.87631989	2.43137264
105.88034821	2.52941179
105.88446045	2.54901958
105.88856506	2.47058821
105.88856506	2.35294127
105.89266968	2.33333325
105.89675140	2.35294127
105.90090179	2.50980401
105.90493774	2.49019599
105.90908051	2.39215684
105.90908051	2.37254906
105.91324615	2.35294127
105.91736603	2.43137264
105.92162323	2.50980401
105.92162323	2.54901958
105.92556763	2.52941179
105.92956543	2.43137264
105.93422699	2.39215684
105.93422699	2.39215684
105.93773651	2.45098042
105.94189453	2.50980401
105.94594574	2.45098042
105.94997406	2.41176462
105.95413971	2.37254906
105.95413971	2.39215684
105.95825958	2.50980401
105.96228027	2.52941179
105.96639252	2.49019599
105.96639252	2.41176462
105.97054291	2.41176462
105.97461700	2.43137264
105.97870636	2.49019599
105.97870636	2.58823538
105.98281097	2.56862736
105.98689270	2.49019599
105.99102020	2.39215684
105.99534607	2.41176462
105.99920654	2.49019599
105.99920654	2.54901958
106.00335693	2.54901958
106.00732422	2.50980401
106.01145935	2.47058821
106.01145935	2.43137264
106.01549530	2.50980401
106.01967621	2.54901958
106.02371216	2.54901958
106.02371216	2.50980401
106.02821350	2.41176462
106.03198242	2.41176462
106.03607178	2.50980401
106.04013062	2.56862736
106.04449463	2.62745094
106.04449463	2.52941179
106.04830933	2.43137264
106.05242920	2.41176462
106.05648041	2.43137264
106.05648041	2.52941179
106.06060028	2.56862736
106.06474304	2.58823538
106.06882477	2.54901958
106.06882477	2.52941179
106.07288361	2.52941179
106.07697296	2.56862736
106.08110046	2.62745094
106.08520508	2.58823538
106.08953094	2.49019599
106.08953094	2.45098042
106.09331512	2.47058821
106.09745026	2.54901958
106.10173035	2.62745094
106.10173035	2.66666675
106.10565948	2.58823538
106.10972595	2.47058821
106.11383820	2.37254906
106.11383820	2.39215684
106.11814880	2.45098042
106.12205505	2.49019599
106.12620544	2.39215684
106.13029480	2.35294127
106.13442993	2.35294127
106.13442993	2.41176462
106.13845825	2.49019599
106.14249420	2.56862736
106.14674377	2.54901958
106.14674377	2.50980401
106.15090179	2.50980401
106.15492249	2.52941179
106.15905762	2.60784316
106.15905762	2.70588231
106.16304779	2.72549009
106.16731262	2.66666675
106.16731262	2.50980401
106.17129517	2.39215684
106.17525482	2.39215684
106.17937469	2.45098042
106.17937469	2.50980401
106.18350220	2.54901958
106.18777466	2.54901958
106.19167328	2.56862736
106.19167328	2.64705873
106.19577026	2.78431368
106.19983673	2.96078420
106.20404053	3.05882359
106.20404053	3.01960778
106.20810699	2.88235283
106.21226501	2.70588231
106.21226501	2.54901958
106.21623993	2.43137264
106.22039795	2.29411769
106.22450256	2.17647052
106.22450256	2.03921580
106.22856903	1.90196073
106.23267365	1.86274505
106.23680878	1.92156863
106.23680878	2.05882359
106.24094391	2.17647052
106.24499512	2.25490189
106.24915314	2.23529410
106.24915314	2.21568632
106.25328064	2.23529410
106.25725555	2.33333325
106.25725555	2.47058821
106.26181793	2.58823538
106.26548767	2.58823538
106.26966858	2.52941179
106.26966858	2.49019599
106.27382660	2.52941179
106.27778625	2.58823538
106.28188324	2.68627453
106.28188324	2.72549009
106.28596497	2.64705873
106.29010773	2.54901958
106.29442596	2.47058821
106.29442596	2.45098042
106.29843140	2.54901958
106.30258179	2.62745094
106.30258179	2.60784316
106.30675507	2.52941179
106.31082916	2.43137264
106.31481171	2.41176462
106.31481171	2.43137264
106.31870270	2.50980401
106.32302856	2.56862736
106.32707977	2.56862736
106.32707977	2.52941179
106.33091736	2.50980401
106.33509827	2.52941179
106.33927917	2.66666675
106.34330750	2.66666675
106.34743500	2.64705873
106.34743500	2.50980401
106.35215759	2.49019599
106.35551453	2.50980401
106.35967255	2.54901958
106.35967255	2.64705873
106.36370087	2.60784316
106.36803436	2.49019599
106.37192535	2.41176462
106.37192535	2.43137264
106.37600708	2.49019599
106.38008881	2.62745094
106.38434601	2.68627453
106.38831329	2.58823538
106.39238739	2.54901958
106.39238739	2.56862736
106.39660645	2.66666675
106.40082550	2.72549009
106.40479279	2.76470590
106.40479279	2.68627453
106.40899658	2.56862736
106.41303253	2.50980401
106.41716003	2.52941179
106.41716003	2.64705873
106.42120361	2.70588231
106.42525482	2.70588231
106.42924500	2.49019599
106.43333435	2.49019599
106.43758392	2.56862736
106.43758392	2.66666675
106.44159698	2.72549009
106.44599915	2.70588231
106.45005798	2.64705873
106.45005798	2.58823538
106.45388031	2.58823538
106.45792389	2.62745094
106.46206665	2.70588231
106.46206665	2.68627453
106.46614075	2.58823538
106.47028351	2.47058821
106.47446442	2.43137264
106.47844696	2.47058821
106.48255920	2.47058821
106.48255920	2.43137264
106.48661041	2.29411769
106.49073792	2.23529410
106.49485779	2.19607854
106.49485779	2.27450991
106.49894714	2.39215684
106.50315857	2.43137264
106.50710297	2.39215684
106.50710297	2.29411769
106.51129913	2.25490189
106.51528168	2.29411769
106.51956177	2.52941179
106.52346039	2.52941179
106.52770233	2.43137264
106.52770233	2.27450991
106.53177643	2.19607854
106.53580475	2.19607854
106.53988647	2.27450991
106.53988647	2.37254906
106.54399872	2.33333325
106.54827118	2.23529410
106.55237579	2.17647052
106.55237579	2.17647052
106.55646515	2.27450991
106.56060791	2.41176462
106.56470490	2.41176462
106.56860352	2.31372547
106.57271576	2.25490189
106.57271576	2.35294127
106.57681274	2.43137264
106.58086395	2.47058821
106.58499146	2.47058821
106.58499146	2.41176462
106.58908081	2.31372547
106.59309387	2.27450991
106.59727478	2.27450991
106.59727478	2.37254906
106.60148621	2.41176462
106.60546875	2.39215684
106.60953522	2.17647052
106.61363220	2.15686274
106.61778259	2.25490189
106.61778259	2.31372547
106.62182617	2.37254906
106.62593079	2.31372547
106.62998962	2.23529410
106.62998962	2.19607854
106.63435364	2.21568632
106.63820648	2.29411769
106.64229584	2.37254906
106.64229584	2.35294127
106.64636230	2.29411769
106.65057373	2.21568632
106.65057373	2.19607854
106.65458679	2.25490189
106.65870667	2.33333325
106.66291809	2.39215684
106.66291809	2.41176462
106.66689301	2.33333325
106.67096710	2.25490189
106.67506409	2.23529410
106.67506409	2.29411769
106.67910767	2.39215684
106.68325806	2.41176462
106.68742371	2.39215684
106.68742371	2.29411769
106.69161987	2.25490189
106.69577789	2.25490189
106.69577789	2.37254906
106.69981384	2.43137264
106.70378113	2.47058821
106.70802307	2.41176462
106.70802307	2.29411769
106.71201324	2.23529410
106.71622467	2.29411769
106.72013855	2.37254906
106.72013855	2.47058821
106.72428131	2.45098042
106.72830200	2.37254906
106.73245239	2.27450991
106.73245239	2.27450991
106.73650360	2.33333325
106.74064636	2.45098042
106.74064636	2.45098042
106.74472046	2.39215684
106.74882507	2.29411769
106.75305939	2.25490189
106.75305939	2.31372547
106.75696564	2.43137264
106.76107788	2.50980401
106.76526642	2.52941179
106.76526642	2.43137264
106.76942444	2.31372547
106.77351379	2.25490189
106.77758026	2.25490189
106.77758026	2.41176462
106.78191376	2.50980401
106.78587341	2.52941179
106.78587341	2.43137264
106.78979492	2.33333325
106.79408264	2.29411769
106.79800415	2.37254906
106.79800415	2.45098042
106.80253601	2.49019599
106.80618286	2.47058821
106.81026459	2.35294127
106.81026459	2.27450991
106.81446075	2.31372547
106.81854248	2.43137264
106.82263184	2.50980401
106.82673645	2.39215684
106.83078766	2.31372547
106.83078766	2.29411769
106.83492279	2.37254906
106.83895874	2.49019599
106.84297943	2.54901958
106.84297943	2.50980401
106.84708405	2.41176462
106.85129547	2.39215684
106.85544586	2.37254906
106.85544586	2.41176462
106.85951233	2.49019599
106.86351776	2.49019599
106.86793518	2.43137264
106.87170410	2.35294127
106.87586975	2.33333325
106.87586975	2.39215684
106.87994385	2.47058821
106.88420105	2.49019599
106.88822937	2.49019599
106.88822937	2.41176462
106.89235687	2.35294127
106.89631653	2.39215684
106.90066528	2.47058821
106.90066528	2.54901958
106.90455627	2.52941179
106.90859222	2.43137264
106.91268921	2.31372547
106.91692352	2.37254906
106.92082977	2.49019599
106.92082977	2.49019599
106.92492676	2.47058821
106.92897797	2.31372547
106.93313599	2.23529410
106.93313599	2.27450991
106.93729401	2.41176462
106.94127655	2.49019599
106.94541168	2.47058821
106.94541168	2.37254906
106.94949341	2.33333325
106.95362854	2.33333325
106.95773315	2.43137264
106.96184540	2.45098042
106.96601105	2.47058821
106.96601105	2.41176462
106.97001648	2.37254906
106.97412872	2.33333325
106.97841644	2.37254906
106.97841644	2.47058821
106.98232269	2.52941179
106.98638916	2.49019599
106.99051666	2.39215684
106.99051666	2.31372547
106.99461365	2.33333325
106.99871063	2.41176462
107.00292969	2.49019599
107.00684357	2.39215684
107.01103210	2.33333325
107.01103210	2.33333325
107.01502991	2.39215684
107.01936340	2.54901958
107.02336121	2.56862736
107.02336121	2.50980401
107.02738190	2.37254906
107.03150940	2.27450991
107.03568268	2.27450991
107.03568268	2.39215684
107.03977203	2.50980401
107.04382324	2.52941179
107.04783630	2.41176462
107.05247498	2.35294127
107.05607605	2.31372547
107.05607605	2.41176462
107.06008148	2.49019599
107.06433105	2.52941179
107.06846619	2.47058821
107.06846619	2.35294127
107.07241058	2.31372547
107.07645416	2.37254906
107.08056641	2.45098042
107.08056641	2.49019599
107.08467865	2.52941179
107.08884430	2.45098042
107.09291077	2.37254906
107.09698486	2.45098042
107.10134125	2.50980401
107.10134125	2.50980401
107.10517883	2.47058821
107.10927582	2.39215684
107.11338806	2.35294127
107.11338806	2.41176462
107.11743164	2.50980401
107.12158203	2.56862736
107.12567902	2.56862736
107.12567902	2.47058821
107.12973022	2.39215684
107.13394928	2.37254906
107.13394928	2.45098042
107.13793945	2.54901958
107.14199829	2.56862736
107.14612579	2.56862736
107.14612579	2.50980401
107.15021515	2.47058821
107.15426636	2.41176462
107.15853119	2.47058821
107.15853119	2.52941179
107.16251373	2.58823538
107.16657257	2.58823538
107.17071533	2.54901958
107.17071533	2.52941179
107.17499542	2.50980401
107.17899323	2.60784316
107.17899323	2.66666675
107.18299866	2.68627453
107.18721771	2.54901958
107.19124603	2.45098042
107.19124603	2.37254906
107.19529724	2.41176462
107.19949341	2.50980401
107.20361328	2.54901958
107.20361328	2.56862736
107.20755005	2.45098042
107.21172333	2.37254906
107.21581268	2.31372547
107.21581268	2.39215684
107.22000885	2.49019599
107.22397614	2.54901958
107.22397614	2.50980401
107.22811127	2.37254906
107.23219299	2.31372547
107.23635101	2.31372547
107.23635101	2.39215684
107.24037933	2.45098042
107.24467468	2.45098042
107.24868011	2.37254906
107.24868011	2.29411769
107.25279236	2.27450991
107.25706482	2.29411769
107.26103210	2.41176462
107.26103210	2.41176462
107.26506042	2.37254906
107.26911163	2.31372547
107.26911163	2.29411769
107.27314758	2.29411769
107.27767944	2.45098042
107.28170776	2.60784316
107.28170776	2.68627453
107.28548431	2.68627453
107.28956604	2.64705873
107.29390717	2.70588231
107.29390717	2.80392146
107.29792786	2.94117641
107.30207825	2.96078420
107.30596161	2.56862736
107.30995178	2.31372547
107.31435394	2.07843137
107.31435394	1.94117641
107.31822205	1.92156863
107.32268524	1.94117641
107.32667542	1.96078432
107.32667542	1.90196073
107.33080292	1.88235295
107.33457947	1.96078432
107.33867645	2.13725495
107.33867645	2.29411769
107.34272766	2.41176462
107.34688568	2.37254906
107.35094452	2.33333325
107.35502625	2.37254906
107.35935211	2.49019599
107.35935211	2.58823538
107.36322784	2.58823538
107.36758423	2.50980401
107.37193298	2.43137264
107.37193298	2.35294127
107.37570953	2.41176462
107.37985992	2.52941179
107.38390350	2.58823538
107.38390350	2.54901958
107.38796997	2.47058821
107.39185333	2.39215684
107.39599609	2.49019599
107.40006256	2.58823538
107.40445709	2.62745094
107.40445709	2.58823538
107.40830231	2.50980401
107.41236877	2.47058821
107.41673279	2.50980401
107.41673279	2.58823538
107.42095184	2.62745094
107.42486572	2.58823538
107.42899323	2.50980401
107.42899323	2.41176462
107.43311310	2.43137264
107.43708038	2.54901958
107.44114685	2.68627453
107.44521332	2.60784316
107.44927979	2.49019599
107.44927979	2.39215684
107.45344543	2.41176462
107.45759583	2.54901958
107.46199036	2.60784316
107.46199036	2.64705873
107.46562195	2.58823538
107.46981812	2.52941179
107.47402191	2.49019599
107.47402191	2.56862736
107.47792053	2.66666675
107.48205566	2.76470590
107.48616791	2.64705873
107.49030304	2.56862736
107.49436951	2.56862736
107.49436951	2.62745094
107.49842072	2.74509811
107.50275421	2.76470590
107.50699615	2.72549009
107.50699615	2.58823538
107.51075745	2.54901958
107.51499939	2.56862736
107.51903534	2.66666675
107.51903534	2.78431368
107.52316284	2.80392146
107.52730560	2.70588231
107.53149414	2.56862736
107.53540802	2.62745094
107.53947449	2.72549009
107.53947449	2.82352948
107.54365540	2.78431368
107.54756165	2.66666675
107.55173492	2.56862736
107.55173492	2.52941179
107.55592346	2.62745094
107.55997467	2.70588231
107.56402588	2.70588231
107.56402588	2.64705873
107.56809235	2.52941179
107.57213593	2.45098042
107.57627869	2.50980401
107.58047485	2.52941179
107.58456421	2.54901958
107.58456421	2.45098042
107.58857727	2.31372547
107.59262848	2.25490189
107.59692383	2.25490189
107.59692383	2.35294127
107.60083771	2.39215684
107.60494232	2.37254906
107.60905457	2.31372547
107.60905457	2.27450991
107.61306763	2.25490189
107.61729431	2.29411769
107.61729431	2.37254906
107.62134552	2.43137264
107.62540436	2.37254906
107.62952423	2.27450991
107.62952423	2.21568632
107.63356781	2.21568632
107.63771820	2.31372547
107.64178467	2.39215684
107.64178467	2.39215684
107.64588928	2.29411769
107.64994812	2.21568632
107.65405273	2.19607854
107.65405273	2.19607854
107.65817261	2.29411769
107.66230011	2.39215684
107.66230011	2.37254906
107.66634369	2.29411769
107.67044830	2.21568632
107.67472076	2.17647052
107.67472076	2.25490189
107.67865753	2.39215684
107.68276215	2.45098042
107.68689728	2.39215684
107.68689728	2.29411769
107.69089508	2.25490189
107.69500732	2.27450991
107.69922638	2.39215684
107.69922638	2.47058821
107.70330048	2.49019599
107.70732117	2.37254906
107.70732117	2.27450991
107.71141052	2.27450991
107.71554565	2.29411769
107.71966553	2.43137264
107.71966553	2.50980401
107.72391510	2.45098042
107.72781372	2.33333325
107.73194885	2.25490189
107.73194885	2.27450991
107.73606110	2.35294127
107.74011230	2.45098042
107.74431610	2.49019599
107.74431610	2.43137264
107.74832916	2.35294127
107.75271606	2.31372547
107.75271606	2.31372547
107.75646973	2.41176462
107.76075745	2.49019599
107.76471710	2.49019599
107.76471710	2.43137264
107.76896667	2.37254906
107.77310944	2.33333325
107.77698517	2.35294127
107.77698517	2.47058821
107.78125763	2.50980401
107.78520203	2.45098042
107.78964996	2.33333325
107.78964996	2.25490189
107.79337311	2.25490189
107.79756927	2.33333325
107.79756927	2.47058821
107.80161285	2.50980401
107.80587769	2.45098042
107.80975342	2.33333325
107.80975342	2.27450991
107.81388855	2.31372547
107.81793976	2.41176462
107.82209778	2.50980401
107.82209778	2.50980401
107.82617950	2.39215684
107.83026886	2.33333325
107.83436584	2.39215684
107.83864594	2.41176462
107.84246063	2.45098042
107.84246063	2.43137264
107.84664154	2.37254906
107.85079193	2.33333325
107.85484314	2.37254906
107.85484314	2.43137264
107.85890198	2.49019599
107.86299896	2.52941179
107.86737061	2.47058821
107.86737061	2.33333325
107.87122345	2.29411769
107.87540436	2.35294127
107.87944031	2.50980401
107.88352203	2.50980401
107.88769531	2.43137264
107.88769531	2.37254906
107.89174652	2.39215684
107.89582062	2.41176462
107.89994049	2.49019599
107.89994049	2.50980401
107.90407562	2.49019599
107.90810394	2.39215684
107.91217804	2.33333325
107.91217804	2.35294127
107.91635132	2.45098042
107.92033386	2.54901958
107.92445374	2.50980401
107.92852020	2.41176462
107.93265533	2.35294127
107.93265533	2.35294127
107.93677521	2.45098042
107.94079590	2.49019599
107.94513702	2.50980401
107.94513702	2.43137264
107.94906616	2.35294127
107.95318604	2.39215684
107.95732880	2.41176462
107.95732880	2.50980401
107.96140289	2.52941179
107.96540833	2.52941179
107.96951294	2.39215684
107.97362518	2.37254906
107.97773743	2.45098042
107.97773743	2.54901958
107.98178864	2.52941179
107.98592377	2.50980401
107.99000549	2.43137264
107.99000549	2.37254906
107.99407959	2.37254906
107.99819946	2.47058821
108.00260162	2.52941179
108.00260162	2.50980401
108.00634003	2.45098042
108.01062775	2.39215684
108.01456451	2.39215684
108.01882172	2.49019599
108.02285767	2.52941179
108.02285767	2.52941179
108.02713776	2.45098042
108.03094482	2.37254906
108.03511810	2.35294127
108.03511810	2.45098042
108.03915405	2.56862736
108.04348755	2.58823538
108.04732513	2.52941179
108.04732513	2.43137264
108.05152893	2.39215684
108.05564117	2.41176462
108.05966949	2.52941179
108.06375122	2.52941179
108.06797791	2.47058821
108.06797791	2.39215684
108.07208252	2.39215684
108.07607269	2.41176462
108.08018494	2.47058821
108.08018494	2.50980401
108.08439636	2.50980401
108.08852386	2.43137264
108.09265900	2.37254906
108.09265900	2.35294127
108.09649658	2.45098042
108.10075378	2.49019599
108.10075378	2.49019599
108.10473633	2.49019599
108.10877228	2.43137264
108.11291504	2.41176462
108.11291504	2.39215684
108.11703491	2.47058821
108.12116241	2.52941179
108.12519836	2.56862736
108.12519836	2.49019599
108.12930298	2.41176462
108.13352203	2.41176462
108.13770294	2.43137264
108.13770294	2.52941179
108.14159393	2.58823538
108.14575195	2.58823538
108.14575195	2.49019599
108.14978790	2.39215684
108.15381622	2.41176462
108.15797424	2.50980401
108.15797424	2.64705873
108.16209412	2.68627453
108.16619110	2.64705873
108.17027283	2.50980401
108.17027283	2.47058821
108.17435455	2.47058821
108.17845917	2.62745094
108.18249512	2.66666675
108.18249512	2.66666675
108.18662262	2.56862736
108.19078827	2.47058821
108.19078827	2.43137264
108.19491577	2.50980401
108.19901276	2.58823538
108.20314789	2.60784316
108.20314789	2.56862736
108.20706177	2.49019599
108.21118927	2.41176462
108.21537018	2.37254906
108.21537018	2.41176462
108.21940613	2.49019599
108.22347260	2.52941179
108.22761536	2.54901958
108.22761536	2.47058821
108.23169708	2.41176462
108.23604584	2.39215684
108.23604584	2.47058821
108.24003601	2.49019599
108.24399567	2.54901958
108.24810028	2.45098042
108.24810028	2.33333325
108.25244141	2.31372547
108.25625610	2.43137264
108.26045227	2.52941179
108.26045227	2.58823538
108.26443481	2.60784316
108.26858521	2.54901958
108.27268219	2.60784316
108.27694702	2.78431368
108.28096008	2.96078420
108.28096008	3.07843137
108.28511810	3.03921580
108.28928375	2.88235283
108.29309082	2.72549009
108.29309082	2.64705873
108.29743195	2.60784316
108.30180359	2.47058821
108.30567169	2.29411769
108.30567169	2.07843137
108.30964661	1.86274505
108.31361389	1.76470590
108.31779480	1.98039210
108.32196045	2.13725495
108.32597351	2.21568632
108.32597351	2.19607854
108.32994843	2.21568632
108.33428955	2.23529410
108.33830261	2.35294127
108.33830261	2.52941179
108.34235382	2.60784316
108.34663391	2.54901958
108.35062408	2.43137264
108.35062408	2.37254906
108.35461426	2.39215684
108.35866547	2.49019599
108.36319733	2.64705873
108.36685181	2.58823538
108.37108612	2.50980401
108.37108612	2.49019599
108.37505341	2.54901958
108.37911224	2.62745094
108.38349915	2.64705873
108.38349915	2.58823538
108.38743591	2.47058821
108.39181519	2.45098042
108.39558411	2.49019599
108.39558411	2.60784316
108.39982605	2.70588231
108.40388489	2.76470590
108.40798950	2.52941179
108.41213989	2.47058821
108.41625977	2.49019599
108.41625977	2.62745094
108.41999817	2.72549009
108.42462158	2.74509811
108.42835999	2.62745094
108.42835999	2.49019599
108.43241882	2.45098042
108.43643951	2.54901958
108.44067383	2.66666675
108.44067383	2.70588231
108.44483948	2.68627453
108.44864655	2.56862736
108.45295715	2.50980401
108.45713806	2.56862736
108.46131897	2.68627453
108.46131897	2.74509811
108.46521759	2.66666675
108.46946716	2.58823538
108.47340393	2.56862736
108.47340393	2.62745094
108.47747040	2.76470590
108.48158264	2.82352948
108.48596191	2.84313726
108.48596191	2.76470590
108.48976135	2.66666675
108.49390411	2.60784316
108.49797058	2.72549009
108.50207520	2.80392146
108.50640106	2.76470590
108.50640106	2.68627453
108.51034546	2.64705873
108.51432037	2.62745094
108.51846313	2.68627453
108.51846313	2.74509811
108.52252960	2.74509811
108.52674866	2.68627453
108.53082275	2.58823538
108.53082275	2.58823538
108.53493500	2.60784316
108.53897858	2.70588231
108.54302216	2.74509811
108.54707336	2.62745094
108.55168915	2.52941179
108.55168915	2.47058821
108.55528259	2.50980401
108.55943298	2.54901958
108.56357574	2.56862736
108.56357574	2.52941179
108.56764984	2.45098042
108.57221985	2.37254906
108.57594299	2.35294127
108.57594299	2.43137264
108.57987213	2.49019599
108.58443451	2.47058821
108.58443451	2.35294127
108.58837128	2.23529410
108.59239960	2.17647052
108.59630585	2.21568632
108.59630585	2.31372547
108.60057068	2.37254906
108.60452271	2.41176462
108.60858917	2.35294127
108.60858917	2.25490189
108.61264038	2.21568632
108.61676788	2.25490189
108.62098694	2.33333325
108.62098694	2.35294127
108.62503815	2.29411769
108.62905884	2.19607854
108.62905884	2.15686274
108.63311005	2.17647052
108.63734436	2.25490189
108.64129639	2.35294127
108.64129639	2.39215684
108.64540863	2.33333325
108.64965820	2.21568632
108.65374756	2.17647052
108.65374756	2.19607854
108.65774536	2.31372547
108.66200256	2.39215684
108.66594696	2.41176462
108.66594696	2.31372547
108.67005157	2.25490189
108.67424011	2.25490189
108.67424011	2.31372547
108.67823792	2.39215684
108.68233490	2.45098042
108.68650818	2.37254906
108.68650818	2.25490189
108.69049072	2.23529410
108.69461060	2.25490189
108.69869995	2.35294127
108.69869995	2.43137264
108.70281982	2.45098042
108.70682526	2.37254906
108.71104431	2.29411769
108.71104431	2.25490189
108.71504211	2.29411769
108.71949768	2.39215684
108.71949768	2.49019599
108.72327423	2.45098042
108.72738647	2.35294127
108.73147583	2.29411769
108.73147583	2.29411769
108.73554993	2.37254906
108.73964691	2.45098042
108.74375916	2.45098042
108.74375916	2.41176462
108.74781799	2.29411769
108.75230408	2.27450991
108.75646973	2.29411769
108.75646973	2.37254906
108.76008606	2.47058821
108.76435089	2.49019599
108.76435089	2.41176462
108.76840973	2.35294127
108.77237701	2.35294127
108.77672577	2.39215684
108.77672577	2.47058821
108.78072357	2.52941179
108.78501892	2.49019599
108.78881073	2.41176462
108.78881073	2.31372547
108.79289246	2.27450991
108.79695129	2.37254906
108.80131531	2.54901958
108.80530548	2.49019599
108.80970001	2.37254906
108.80970001	2.27450991
108.81371307	2.29411769
108.81768036	2.41176462
108.82192230	2.52941179
108.82192230	2.54901958
108.82598877	2.45098042
108.82987976	2.35294127
108.83435822	2.31372547
108.83435822	2.35294127
108.83831024	2.47058821
108.84246063	2.52941179
108.84658051	2.47058821
108.85095978	2.43137264
108.85475159	2.41176462
108.85475159	2.43137264
108.85879517	2.52941179
108.86281586	2.54901958
108.86701202	2.47058821
108.86701202	2.39215684
108.87076569	2.33333325
108.87499237	2.31372547
108.87885284	2.43137264
108.87885284	2.52941179
108.88298798	2.52941179
108.88721466	2.47058821
108.89118195	2.37254906
108.89530945	2.41176462
108.89937592	2.52941179
108.89937592	2.54901958
108.90343475	2.52941179
108.90754700	2.41176462
108.91166687	2.37254906
108.91166687	2.39215684
108.91577148	2.49019599
108.91987610	2.58823538
108.92412567	2.60784316
108.92412567	2.54901958
108.92815399	2.41176462
108.93215942	2.37254906
108.93644714	2.49019599
108.94032288	2.58823538
108.94451141	2.56862736
108.94451141	2.47058821
108.94858551	2.37254906
108.95278168	2.37254906
108.95675659	2.41176462
108.95675659	2.50980401
108.96089935	2.54901958
108.96491241	2.54901958
108.96945190	2.43137264
108.96945190	2.37254906
108.97323608	2.41176462
108.97737885	2.47058821
108.98133850	2.56862736
108.98542023	2.49019599
108.98968506	2.39215684
108.98968506	2.37254906
108.99359894	2.39215684
108.99771881	2.47058821
109.00218964	2.52941179
109.00218964	2.50980401
109.00606537	2.43137264
109.01012421	2.35294127
109.01422119	2.39215684
109.01422119	2.45098042
109.01820374	2.50980401
109.02235413	2.52941179
109.02640533	2.37254906
109.03054810	2.35294127
109.03476715	2.39215684
109.03476715	2.49019599
109.03881073	2.58823538
109.04280853	2.60784316
109.04685974	2.54901958
109.04685974	2.45098042
109.05117798	2.37254906
109.05537415	2.39215684
109.05913544	2.47058821
109.05913544	2.52941179
109.06325531	2.56862736
109.06761169	2.50980401
109.07143402	2.49019599
109.07570648	2.52941179
109.07976532	2.64705873
109.07976532	2.70588231
109.08376312	2.62745094
109.08792114	2.47058821
109.09194183	2.41176462
109.09194183	2.43137264
109.09616852	2.52941179
109.10005188	2.62745094
109.10456848	2.62745094
109.10456848	2.58823538
109.10827637	2.49019599
109.11240387	2.41176462
109.11240387	2.35294127
109.11658478	2.45098042
109.12062836	2.54901958
109.12473297	2.56862736
109.12473297	2.43137264
109.12888336	2.31372547
109.13293457	2.29411769
109.13710785	2.33333325
109.13710785	2.43137264
109.14125061	2.47058821
109.14527893	2.49019599
109.14930725	2.41176462
109.14930725	2.37254906
109.15354919	2.35294127
109.15767670	2.41176462
109.15767670	2.47058821
109.16157532	2.45098042
109.16567993	2.39215684
109.16976166	2.29411769
109.16976166	2.27450991
109.17427063	2.33333325
109.17802429	2.43137264
109.18209839	2.50980401
109.18209839	2.54901958
109.18642426	2.52941179
109.19065094	2.50980401
109.19443512	2.52941179
109.19443512	2.66666675
109.19873810	2.88235283
109.20301819	2.98039222
109.20301819	2.94117641
109.20658875	2.76470590
109.21098328	2.62745094
109.21496582	2.47058821
109.21496582	2.39215684
109.21894836	2.27450991
109.22306824	2.15686274
109.22721100	1.98039210
109.22721100	1.80392158
109.23121643	1.76470590
109.23567963	1.80392158
109.23941803	1.96078432
109.23941803	2.09803915
109.24347687	2.15686274
109.24761963	2.13725495
109.24761963	2.13725495
109.25206757	2.19607854
109.25585175	2.31372547
109.25994873	2.52941179
109.25994873	2.64705873
109.26398468	2.66666675
109.26805115	2.52941179
109.27227020	2.43137264
109.27227020	2.37254906
109.27658844	2.47058821
109.28033447	2.52941179
109.28456879	2.50980401
109.28859711	2.41176462
109.29269409	2.41176462
109.29269409	2.47058821
109.29676056	2.58823538
109.30097961	2.66666675
109.30506134	2.68627453
109.30506134	2.58823538
109.30907440	2.50980401
109.31321716	2.47058821
109.31749725	2.49019599
109.31749725	2.58823538
109.32139587	2.64705873
109.32575989	2.66666675
109.32952118	2.50980401
109.33374786	2.49019599
109.33802032	2.58823538
109.33802032	2.70588231
109.34200287	2.76470590
109.34613037	2.70588231
109.35043335	2.56862736
109.35043335	2.47058821
109.35422516	2.45098042
109.35854340	2.52941179
109.36263275	2.60784316
109.36263275	2.66666675
109.36664581	2.64705873
109.37075043	2.58823538
109.37473297	2.62745094
109.37878418	2.72549009
109.38311768	2.78431368
109.38311768	2.74509811
109.38684082	2.58823538
109.39126587	2.56862736
109.39528656	2.60784316
109.39528656	2.72549009
109.39925385	2.84313726
109.40339661	2.86274505
109.40736389	2.78431368
109.40736389	2.68627453
109.41146851	2.64705873
109.41551971	2.64705873
109.41950226	2.80392146
109.42372894	2.80392146
109.42790985	2.70588231
109.42790985	2.62745094
109.43202209	2.60784316
109.43591309	2.66666675
109.44020844	2.78431368
109.44020844	2.84313726
109.44436646	2.82352948
109.44838715	2.68627453
109.45236206	2.56862736
109.45236206	2.50980401
109.45662689	2.58823538
109.46069336	2.66666675
109.46473694	2.62745094
109.46868134	2.50980401
109.47293091	2.47058821
109.47293091	2.45098042
109.47704315	2.52941179
109.48114014	2.54901958
109.48506165	2.50980401
109.48506165	2.41176462
109.48947906	2.29411769
109.49343872	2.27450991
109.49772644	2.35294127
109.49772644	2.43137264
109.50154877	2.47058821
109.50583649	2.43137264
109.50978088	2.17647052
109.51391602	2.15686274
109.51791382	2.21568632
109.51791382	2.29411769
109.52207184	2.31372547
109.52623749	2.23529410
109.53032684	2.17647052
109.53032684	2.13725495
109.53423309	2.15686274
109.53845215	2.23529410
109.54282379	2.31372547
109.54282379	2.33333325
109.54682159	2.27450991
109.55057526	2.21568632
109.55490112	2.21568632
109.55892944	2.35294127
109.56307983	2.39215684
109.56307983	2.33333325
109.56729889	2.19607854
109.57127380	2.13725495
109.57540894	2.15686274
109.57540894	2.27450991
109.57943726	2.35294127
109.58357239	2.39215684
109.58774567	2.31372547
109.58774567	2.21568632
109.59193420	2.13725495
109.59596252	2.19607854
109.59596252	2.29411769
109.59994507	2.35294127
109.60404205	2.35294127
109.60813904	2.35294127
109.60813904	2.25490189
109.61218262	2.23529410
109.61640930	2.31372547
109.62047577	2.39215684
109.62047577	2.43137264
109.62449646	2.41176462
109.62869263	2.29411769
109.63271332	2.23529410
109.63271332	2.23529410
109.63706207	2.31372547
109.64101410	2.41176462
109.64101410	2.47058821
109.64502716	2.37254906
109.64910126	2.27450991
109.65320587	2.21568632
109.65320587	2.25490189
109.65735626	2.35294127
109.66139984	2.43137264
109.66550446	2.43137264
109.66550446	2.33333325
109.66943359	2.23529410
109.67372131	2.23529410
109.67775726	2.29411769
109.67775726	2.41176462
109.68210602	2.49019599
109.68576813	2.43137264
109.68576813	2.29411769
109.69023132	2.21568632
109.69413757	2.23529410
109.69829559	2.33333325
109.69829559	2.41176462
109.70230865	2.43137264
109.70644379	2.33333325
109.71058655	2.23529410
109.71058655	2.23529410
109.71461487	2.25490189
109.71850586	2.33333325
109.72283936	2.39215684
109.72283936	2.37254906
109.72690582	2.27450991
109.73122406	2.21568632
109.73122406	2.19607854
109.73496246	2.31372547
109.73918915	2.33333325
109.74335480	2.37254906
109.74335480	2.31372547
109.74749756	2.27450991
109.75141907	2.21568632
109.75570679	2.23529410
109.75570679	2.31372547
109.75966644	2.41176462
109.76379395	2.37254906
109.76768494	2.17647052
109.77178955	2.13725495
109.77631378	2.15686274
109.77631378	2.29411769
109.78023529	2.35294127
109.78405762	2.37254906
109.78838348	2.27450991
109.78838348	2.19607854
109.79244232	2.13725495
109.79653931	2.23529410
109.80059814	2.35294127
109.80059814	2.41176462
109.80476379	2.39215684
109.80886078	2.33333325
109.81307220	2.23529410
109.81716919	2.31372547
109.82149506	2.37254906
109.82149506	2.37254906
109.82536316	2.31372547
109.82955933	2.23529410
109.83337402	2.17647052
109.83337402	2.23529410
109.83754730	2.33333325
109.84138489	2.41176462
109.84552765	2.35294127
109.84552765	2.23529410
109.84955597	2.15686274
109.85375977	2.17647052
109.85784912	2.43137264
109.86192322	2.49019599
109.86602020	2.43137264
109.86602020	2.31372547
109.87017059	2.21568632
109.87429810	2.19607854
109.87841034	2.27450991
109.87841034	2.35294127
109.88243103	2.37254906
109.88649750	2.33333325
109.89057159	2.25490189
109.89057159	2.23529410
109.89466095	2.23529410
109.89879608	2.35294127
109.90287018	2.45098042
109.90692139	2.33333325
109.91110229	2.23529410
109.91110229	2.17647052
109.91507721	2.25490189
109.91937256	2.41176462
109.92330933	2.49019599
109.92330933	2.45098042
109.92736816	2.33333325
109.93147278	2.25490189
109.93563080	2.23529410
109.93563080	2.31372547
109.93975067	2.41176462
109.94390869	2.45098042
109.94790649	2.25490189
109.95200348	2.19607854
109.95611572	2.27450991
109.95611572	2.41176462
109.96018982	2.49019599
109.96425629	2.49019599
109.96847534	2.39215684
109.96847534	2.31372547
109.97244263	2.29411769
109.97652435	2.31372547
109.98078156	2.37254906
109.98078156	2.45098042
109.98477936	2.45098042
109.98885345	2.37254906
109.99304199	2.29411769
109.99722290	2.37254906
110.00147247	2.49019599
110.00147247	2.52941179
110.00530243	2.45098042
110.00952148	2.35294127
110.01353455	2.31372547
110.01353455	2.33333325
110.01755524	2.43137264
110.02164459	2.49019599
110.02570343	2.47058821
110.02570343	2.39215684
110.02983856	2.31372547
110.03400421	2.25490189
110.03803253	2.45098042
110.04212952	2.52941179
110.04621124	2.49019599
110.04621124	2.41176462
110.05032349	2.33333325
110.05446625	2.33333325
110.05866241	2.41176462
110.05866241	2.52941179
110.06269836	2.50980401
110.06690216	2.45098042
110.07106018	2.35294127
110.07106018	2.33333325
110.07501221	2.37254906
110.07901001	2.49019599
110.07901001	2.54901958
110.08307648	2.52941179
110.08721161	2.45098042
110.09127045	2.39215684
110.09127045	2.37254906
110.09539795	2.41176462
110.09946442	2.50980401
110.10357666	2.56862736
110.10357666	2.54901958
110.10764313	2.45098042
110.11184692	2.43137264
110.11582184	2.47058821
110.11582184	2.56862736
110.11997986	2.60784316
110.12446594	2.62745094
110.12446594	2.52941179
110.12848663	2.41176462
110.13255310	2.35294127
110.13639069	2.37254906
110.13639069	2.47058821
110.14067078	2.54901958
110.14494324	2.56862736
110.14900970	2.45098042
110.14900970	2.35294127
110.15296936	2.33333325
110.15708923	2.37254906
110.16091156	2.45098042
110.16091156	2.50980401
110.16522217	2.47058821
110.16922760	2.35294127
110.16922760	2.29411769
110.17338562	2.33333325
110.17751312	2.41176462
110.18166351	2.49019599
110.18166351	2.50980401
110.18587494	2.39215684
110.18967438	2.27450991
110.19378662	2.19607854
110.19378662	2.21568632
110.19810486	2.33333325
110.20206451	2.45098042
110.20620728	2.50980401
110.20620728	2.39215684
110.21038055	2.31372547
110.21446991	2.31372547
110.21446991	2.43137264
110.21826172	2.58823538
110.22242737	2.68627453
110.22673035	2.74509811
110.22673035	2.72549009
110.23079681	2.74509811
110.23468781	2.78431368
110.23917389	2.86274505
110.23917389	2.84313726
110.24317169	2.78431368
110.24712372	2.58823538
110.25135803	2.07843137
110.25547791	1.94117641
110.25948334	1.92156863
110.25948334	1.94117641
110.26353455	1.90196073
110.26741791	1.84313726
110.27177429	1.86274505
110.27177429	1.96078432
110.27581787	2.19607854
110.27996063	2.41176462
110.28385925	2.49019599
110.28385925	2.41176462
110.28824615	2.29411769
110.29228210	2.27450991
110.29635620	2.45098042
110.30065155	2.54901958
110.30453491	2.58823538
110.30453491	2.50980401
110.30867767	2.45098042
110.31278229	2.39215684
110.31686401	2.43137264
110.31686401	2.50980401
110.32067871	2.58823538
110.32505798	2.54901958
110.32891846	2.49019599
110.32891846	2.41176462
110.33354950	2.41176462
110.33718872	2.50980401
110.34123230	2.66666675
110.34529877	2.60784316
110.34941864	2.47058821
110.34941864	2.41176462
110.35345459	2.39215684
110.35753632	2.52941179
110.36170197	2.58823538
110.36170197	2.60784316
110.36573029	2.52941179
110.36985779	2.43137264
110.37397003	2.41176462
110.37397003	2.45098042
110.37800598	2.58823538
110.38220215	2.64705873
110.38628387	2.54901958
110.39041901	2.45098042
110.39442444	2.45098042
110.39442444	2.56862736
110.39852142	2.72549009
110.40261078	2.80392146
110.40670776	2.70588231
110.40670776	2.56862736
110.41078949	2.49019599
110.41487885	2.50980401
110.41902924	2.62745094
110.41902924	2.72549009
110.42321777	2.72549009
110.42719269	2.60784316
110.43125916	2.47058821
110.43536377	2.58823538
110.43963623	2.70588231
110.43963623	2.82352948
110.44358826	2.76470590
110.44770813	2.64705873
110.45178223	2.58823538
110.45178223	2.54901958
110.45597839	2.64705873
110.45996857	2.74509811
110.46416473	2.80392146
110.46416473	2.72549009
110.46818542	2.60784316
110.47229004	2.54901958
110.47640228	2.68627453
110.48049927	2.72549009
110.48474884	2.76470590
110.48474884	2.64705873
110.48863983	2.52941179
110.49272919	2.45098042
110.49693298	2.49019599
110.49693298	2.52941179
110.50110626	2.56862736
110.50512695	2.54901958
110.50917816	2.47058821
110.50917816	2.41176462
110.51322937	2.39215684
110.51734924	2.39215684
110.52156830	2.43137264
110.52552032	2.39215684
110.52969360	2.31372547
110.52969360	2.27450991
110.53370667	2.29411769
110.53780365	2.37254906
110.54192352	2.43137264
110.54192352	2.41176462
110.54598236	2.31372547
110.55027008	2.21568632
110.55422211	2.15686274
110.55422211	2.17647052
110.55825043	2.27450991
110.56245422	2.35294127
110.56245422	2.31372547
110.56662750	2.17647052
110.57059479	2.09803915
110.57472992	2.09803915
110.57472992	2.17647052
110.57875824	2.29411769
110.58292389	2.33333325
110.58697510	2.27450991
110.58697510	2.19607854
110.59104156	2.17647052
110.59518433	2.19607854
110.60075378	2.27450991
110.60075378	2.33333325
110.60414124	2.37254906
110.60890198	2.29411769
110.60890198	2.15686274
110.61157227	2.13725495
110.61561584	2.19607854
110.62021637	2.31372547
110.62021637	2.41176462
110.62412262	2.39215684
110.62796021	2.27450991
110.63301849	2.17647052
110.63301849	2.11764717
110.63617706	2.25490189
110.64020538	2.37254906
110.64429474	2.41176462
110.64429474	2.35294127
110.64851379	2.25490189
110.65254974	2.21568632
110.65254974	2.23529410
110.65658569	2.33333325
110.66067505	2.43137264
110.66479492	2.47058821
110.66479492	2.35294127
110.66885376	2.21568632
110.67301178	2.19607854
110.67710114	2.25490189
110.67710114	2.39215684
110.68109894	2.45098042
110.68536377	2.39215684
110.68940735	2.25490189
110.68940735	2.21568632
110.69347382	2.27450991
110.69757843	2.37254906
110.69757843	2.50980401
110.70164490	2.54901958
110.70568085	2.49019599
110.70982361	2.35294127
110.70982361	2.31372547
110.71390533	2.33333325
110.71814728	2.41176462
110.72224426	2.47058821
110.72224426	2.45098042
110.72621155	2.39215684
110.73030090	2.29411769
110.73461151	2.29411769
110.73851013	2.41176462
110.74257660	2.49019599
110.74257660	2.47058821
110.74674988	2.37254906
110.75093079	2.33333325
110.75502014	2.35294127
110.75502014	2.45098042
110.75897980	2.54901958
110.76321411	2.50980401
110.76725769	2.47058821
110.76725769	2.41176462
110.77140808	2.37254906
110.77539063	2.37254906
110.77943420	2.54901958
110.78358459	2.56862736
110.78769684	2.45098042
110.78769684	2.33333325
110.79171753	2.29411769
110.79589081	2.29411769
110.80004883	2.39215684
110.80004883	2.47058821
110.80406952	2.47058821
110.80815887	2.39215684
110.81254578	2.35294127
110.81254578	2.31372547
110.81630707	2.43137264
110.82052612	2.56862736
110.82487488	2.52941179
110.82890320	2.41176462
110.83273315	2.37254906
110.83273315	2.37254906
110.83687592	2.47058821
110.84090424	2.50980401
110.84500885	2.50980401
110.84500885	2.45098042
110.84923553	2.37254906
110.85321808	2.35294127
110.85728455	2.39215684
110.85728455	2.47058821
110.86141205	2.50980401
110.86563110	2.47058821
110.86962891	2.35294127
110.87372589	2.35294127
110.87795258	2.43137264
110.87795258	2.50980401
110.88222504	2.50980401
110.88599396	2.43137264
110.89012909	2.33333325
110.89012909	2.31372547
110.89411163	2.35294127
110.89828491	2.49019599
110.90238953	2.56862736
110.90238953	2.60784316
110.90644073	2.50980401
110.91054535	2.41176462
110.91462708	2.39215684
110.91877747	2.49019599
110.92291260	2.52941179
110.92291260	2.49019599
110.92691040	2.37254906
110.93097687	2.31372547
110.93520355	2.37254906
110.93520355	2.47058821
110.93932343	2.50980401
110.94340515	2.50980401
110.94754028	2.43137264
110.94754028	2.33333325
110.95154572	2.33333325
110.95568848	2.39215684
110.95968628	2.62745094
110.96374512	2.58823538
110.96805573	2.47058821
110.96805573	2.35294127
110.97222900	2.31372547
110.97659302	2.39215684
110.98059082	2.50980401
110.98059082	2.54901958
110.98436737	2.52941179
110.98862457	2.39215684
110.99252319	2.31372547
110.99252319	2.29411769
110.99677277	2.39215684
111.00085449	2.50980401
111.00492859	2.49019599
111.00906372	2.39215684
111.01319885	2.35294127
111.01319885	2.39215684
111.01703644	2.50980401
111.02121735	2.58823538
111.02576447	2.56862736
111.02576447	2.47058821
111.02980804	2.41176462
111.03389740	2.37254906
111.03783417	2.43137264
111.03783417	2.56862736
111.04184723	2.62745094
111.04610443	2.60784316
111.04610443	2.49019599
111.05020905	2.45098042
111.05420685	2.45098042
111.05809021	2.56862736
111.05809021	2.62745094
111.06234741	2.64705873
111.06644440	2.54901958
111.07088470	2.45098042
111.07088470	2.45098042
111.07481384	2.47058821
111.07881927	2.54901958
111.08287811	2.60784316
111.08287811	2.60784316
111.08693695	2.49019599
111.09104156	2.43137264
111.09104156	2.45098042
111.09490967	2.54901958
111.09922028	2.64705873
111.10345459	2.66666675
111.10345459	2.62745094
111.10729218	2.49019599
111.11149597	2.39215684
111.11594391	2.41176462
111.11594391	2.50980401
111.11956787	2.56862736
111.12372589	2.56862736
111.12802887	2.50980401
111.12802887	2.39215684
111.13206482	2.37254906
111.13589478	2.41176462
111.13589478	2.49019599
111.14012909	2.52941179
111.14427948	2.50980401
111.14835358	2.39215684
111.14835358	2.33333325
111.15225983	2.31372547
111.15666199	2.37254906
111.16066742	2.43137264
111.16066742	2.43137264
111.16449738	2.35294127
111.16864014	2.27450991
111.17294312	2.27450991
111.17294312	2.35294127
111.17685699	2.47058821
111.18111420	2.60784316
111.18111420	2.62745094
111.18514252	2.58823538
111.18930054	2.56862736
111.19351196	2.58823538
111.19351196	2.72549009
111.19747162	2.90196085
111.20139313	2.96078420
111.20578003	2.90196085
111.20578003	2.70588231
111.20967865	2.50980401
111.21408081	2.31372547
111.21791840	2.13725495
111.22199249	2.03921580
111.22611237	1.90196073
111.22611237	1.80392158
111.23030090	1.78431368
111.23432922	1.88235295
111.23840332	2.05882359
111.23840332	2.25490189
111.24251556	2.41176462
111.24663544	2.43137264
111.25071716	2.39215684
111.25071716	2.35294127
111.25470734	2.41176462
111.25879669	2.50980401
111.26313782	2.54901958
111.26731110	2.43137264
111.27126312	2.37254906
111.27126312	2.41176462
111.27537537	2.52941179
111.27936554	2.60784316
111.28365326	2.68627453
111.28365326	2.64705873
111.28752899	2.50980401
111.29170227	2.45098042
111.29573822	2.45098042
111.29573822	2.50980401
111.29984283	2.58823538
111.30397797	2.60784316
111.30795288	2.50980401
111.31217957	2.49019599
111.31615448	2.52941179
111.31615448	2.66666675
111.32059479	2.74509811
111.32445526	2.70588231
111.32858276	2.58823538
111.32858276	2.49019599
111.33276367	2.41176462
111.33671570	2.45098042
111.34079742	2.58823538
111.34079742	2.68627453
111.34494781	2.62745094
111.34900665	2.50980401
111.35312653	2.49019599
111.35716248	2.62745094
111.36140442	2.58823538
111.36140442	2.47058821
111.36542511	2.27450991
111.36952209	2.05882359
111.37361145	2.01960778
111.37361145	2.05882359
111.37765503	2.17647052
111.38180542	2.23529410
111.38593292	2.21568632
111.38593292	2.19607854
111.38997650	2.31372547
111.39408112	2.41176462
111.39823151	2.72549009
111.40230560	2.80392146
111.40643311	2.80392146
111.40643311	2.72549009
111.41060638	2.68627453
111.41452026	2.70588231
111.41863251	2.84313726
111.41863251	2.74509811
111.42270660	2.62745094
111.42683411	2.45098042
111.43093109	2.25490189
111.43093109	2.19607854
111.43507385	2.21568632
111.43909454	2.29411769
111.44326019	2.29411769
111.44728088	2.31372547
111.45143127	2.39215684
111.45143127	2.45098042
111.45551300	2.58823538
111.45977783	2.74509811
111.46385956	2.86274505
111.46385956	2.84313726
111.46784973	2.72549009
111.47187042	2.64705873
111.47602844	2.66666675
111.47602844	2.74509811
111.48022461	2.66666675
111.48429108	2.49019599
111.48828888	2.03921580
111.49238586	1.94117641
111.49654388	1.98039210
111.49654388	2.07843137
111.50054932	2.13725495
111.50469971	2.11764717
111.50899506	2.09803915
111.50899506	2.11764717
111.51310730	2.23529410
111.51709747	2.37254906
111.52136230	2.54901958
111.52136230	2.62745094
111.52523804	2.58823538
111.52931213	2.47058821
111.52931213	2.43137264
111.53340149	2.43137264
111.53749847	2.50980401
111.54171753	2.49019599
111.54171753	2.43137264
111.54576874	2.25490189
111.54975891	2.11764717
111.55394745	2.05882359
111.55394745	2.09803915
111.55789948	2.19607854
111.56214905	2.27450991
111.56614685	2.23529410
111.56614685	2.13725495
111.57035065	2.15686274
111.57437897	2.27450991
111.57437897	2.41176462
111.57841492	2.60784316
111.58259583	2.66666675
111.58675385	2.58823538
111.58675385	2.49019599
111.59086609	2.47058821
111.59483337	2.50980401
111.59914398	2.62745094
111.59914398	2.64705873
111.60302734	2.60784316
111.60710907	2.43137264
111.61120605	2.27450991
111.61120605	2.23529410
111.61529541	2.25490189
111.61946869	2.43137264
111.61946869	2.50980401
111.62348938	2.49019599
111.62758636	2.37254906
111.63165283	2.27450991
111.63165283	2.31372547
111.63571930	2.43137264
111.63980865	2.56862736
111.64399719	2.62745094
111.64399719	2.60784316
111.64808655	2.52941179
111.65219116	2.50980401
111.65631866	2.52941179
111.65631866	2.66666675
111.66046143	2.68627453
111.66439819	2.64705873
111.66439819	2.54901958
111.66851044	2.45098042
111.67266083	2.41176462
111.67674255	2.45098042
111.67674255	2.54901958
111.68080139	2.60784316
111.68494415	2.60784316
111.68921661	2.49019599
111.68921661	2.43137264
111.69316101	2.45098042
111.69731903	2.52941179
111.70135498	2.64705873
111.70135498	2.68627453
111.70543671	2.58823538
111.70967865	2.49019599
111.70967865	2.45098042
111.71378326	2.47058821
111.71779633	2.58823538
111.72189331	2.70588231
111.72189331	2.72549009
111.72586823	2.60784316
111.72998047	2.47058821
111.73431396	2.41176462
111.73431396	2.49019599
111.73815918	2.64705873
111.74229431	2.72549009
111.74634552	2.54901958
111.75040436	2.43137264
111.75466156	2.39215684
111.75466156	2.50980401
111.75861359	2.60784316
111.76270294	2.64705873
111.76686859	2.56862736
111.76686859	2.43137264
111.77098083	2.39215684
111.77517700	2.39215684
111.77922821	2.50980401
111.77922821	2.58823538
111.78324890	2.66666675
111.78730774	2.58823538
111.79158783	2.47058821
111.79571533	2.50980401
111.79957581	2.60784316
111.79957581	2.64705873
111.80371857	2.66666675
111.80789185	2.56862736
111.81185913	2.47058821
111.81185913	2.49019599
111.81598663	2.58823538
111.82020569	2.62745094
111.82421875	2.60784316
111.82421875	2.52941179
111.82828522	2.41176462
111.83239746	2.35294127
111.83661652	2.47058821
111.84077454	2.52941179
111.84479523	2.54901958
111.84479523	2.45098042
111.84879303	2.35294127
111.85294342	2.31372547
111.85699463	2.39215684
111.85699463	2.50980401
111.86106873	2.54901958
111.86513519	2.54901958
111.86936951	2.41176462
111.86936951	2.35294127
111.87335205	2.33333325
111.87744904	2.47058821
111.88150024	2.58823538
111.88567352	2.54901958
111.88970947	2.43137264
111.88970947	2.35294127
111.89379120	2.33333325
111.89808655	2.47058821
111.90198517	2.54901958
111.90198517	2.56862736
111.90608215	2.43137264
111.91027832	2.31372547
111.91430664	2.31372547
111.91430664	2.39215684
111.91835022	2.52941179
111.92247772	2.60784316
111.92671204	2.45098042
111.93116760	2.39215684
111.93520355	2.35294127
111.93520355	2.45098042
111.93886566	2.58823538
111.94313049	2.66666675
111.94709015	2.60784316
111.94709015	2.47058821
111.95125580	2.39215684
111.95534515	2.43137264
111.95933533	2.50980401
111.95933533	2.58823538
111.96370697	2.56862736
111.96762848	2.45098042
111.97168732	2.35294127
111.97576141	2.43137264
111.97988892	2.56862736
111.97988892	2.58823538
111.98390961	2.54901958
111.98803711	2.41176462
111.99226379	2.35294127
111.99226379	2.35294127
111.99629974	2.47058821
112.00039673	2.56862736
112.00447083	2.60784316
112.00447083	2.54901958
112.00888824	2.45098042
112.01263428	2.39215684
112.01670837	2.54901958
112.02084351	2.60784316
112.02510834	2.58823538
112.02510834	2.49019599
112.02908325	2.33333325
112.03312683	2.31372547
112.03736877	2.39215684
112.03736877	2.54901958
112.04145813	2.60784316
112.04539490	2.56862736
112.04959106	2.43137264
112.04959106	2.29411769
112.05364990	2.27450991
112.05776978	2.39215684
112.05776978	2.50980401
112.06189728	2.56862736
112.06587219	2.56862736
112.07003021	2.45098042
112.07003021	2.43137264
112.07406616	2.49019599
112.07810211	2.60784316
112.08233643	2.68627453
112.08233643	2.66666675
112.08646393	2.56862736
112.09053802	2.49019599
112.09464264	2.47058821
112.09464264	2.52941179
112.09877014	2.62745094
112.10292053	2.66666675
112.10292053	2.62745094
112.10689545	2.52941179
112.11094666	2.41176462
112.11505127	2.39215684
112.11505127	2.49019599
112.11927032	2.60784316
112.12329102	2.64705873
112.12734222	2.54901958
112.12734222	2.41176462
112.13138580	2.35294127
112.13553619	2.41176462
112.13964844	2.52941179
112.13964844	2.62745094
112.14382172	2.62745094
112.14785004	2.49019599
112.14785004	2.37254906
112.15198517	2.33333325
112.15598297	2.39215684
112.16011047	2.49019599
112.16011047	2.52941179
112.16423035	2.47058821
112.16831207	2.35294127
112.17245483	2.29411769
112.17245483	2.31372547
112.17651367	2.39215684
112.18057251	2.45098042
112.18470001	2.45098042
112.18470001	2.37254906
112.18876648	2.29411769
112.19283295	2.27450991
112.19283295	2.37254906
112.19699860	2.50980401
112.20127869	2.64705873
112.20520020	2.74509811
112.20520020	2.72549009
112.20933533	2.72549009
112.21343231	2.76470590
112.21749878	2.82352948
112.21749878	2.84313726
112.22154236	2.78431368
112.22565460	2.60784316
112.22972870	2.15686274
112.23396301	1.96078432
112.23795319	1.92156863
112.23795319	1.96078432
112.24203491	1.98039210
112.24611664	1.92156863
112.25025177	1.86274505
112.25025177	1.92156863
112.25437927	2.11764717
112.25836182	2.31372547
112.26287079	2.49019599
112.26287079	2.54901958
112.26679230	2.41176462
112.27079010	2.31372547
112.27487183	2.43137264
112.27886200	2.58823538
112.28305054	2.66666675
112.28305054	2.64705873
112.28718567	2.50980401
112.29139709	2.43137264
112.29529572	2.43137264
112.29529572	2.49019599
112.29936218	2.56862736
112.30364227	2.60784316
112.30761719	2.58823538
112.30761719	2.50980401
112.31168365	2.43137264
112.31590271	2.43137264
112.31993103	2.70588231
112.32424164	2.68627453
112.32802582	2.54901958
112.32802582	2.43137264
112.33207703	2.43137264
112.33631897	2.56862736
112.34037781	2.70588231
112.34037781	2.72549009
112.34457397	2.68627453
112.34875488	2.56862736
112.35270691	2.49019599
112.35270691	2.50980401
112.35668945	2.54901958
112.36085510	2.58823538
112.36494446	2.52941179
112.36904907	2.45098042
112.37313843	2.45098042
112.37313843	2.52941179
112.37719727	2.60784316
112.38129425	2.66666675
112.38569641	2.64705873
112.38569641	2.56862736
112.38949585	2.50980401
112.39358521	2.49019599
112.39782715	2.56862736
112.39782715	2.76470590
112.40190887	2.80392146
112.40589142	2.74509811
112.41003418	2.60784316
112.41417694	2.60784316
112.41825104	2.74509811
112.41825104	2.82352948
112.42235565	2.82352948
112.42637634	2.70588231
112.43047333	2.56862736
112.43047333	2.49019599
112.43471527	2.56862736
112.43872833	2.70588231
112.44277191	2.80392146
112.44277191	2.78431368
112.44703674	2.64705873
112.45109558	2.50980401
112.45505524	2.60784316
112.45909882	2.76470590
112.46340179	2.84313726
112.46340179	2.80392146
112.46750641	2.62745094
112.47140503	2.50980401
112.47557068	2.47058821
112.47557068	2.56862736
112.47971344	2.66666675
112.48387146	2.66666675
112.48783112	2.56862736
112.48783112	2.47058821
112.49198151	2.39215684
112.49619293	2.39215684
112.50016785	2.50980401
112.50431061	2.50980401
112.50833130	2.37254906
112.50833130	2.27450991
112.51249695	2.25490189
112.51647949	2.31372547
112.52066040	2.37254906
112.52066040	2.41176462
112.52471924	2.37254906
112.52921295	2.23529410
112.53307343	2.13725495
112.53307343	2.13725495
112.53724670	2.27450991
112.54128265	2.39215684
112.54128265	2.41176462
112.54550171	2.29411769
112.54987335	2.17647052
112.55382538	2.15686274
112.55382538	2.21568632
112.55780029	2.35294127
112.56175995	2.39215684
112.56595612	2.35294127
112.56595612	2.25490189
112.56989288	2.15686274
112.57402039	2.11764717
112.57791901	2.15686274
112.57791901	2.27450991
112.58207703	2.37254906
112.58621216	2.37254906
112.58621216	2.25490189
112.59040833	2.21568632
112.59430695	2.21568632
112.59844208	2.33333325
112.59844208	2.41176462
112.60265350	2.41176462
112.60665131	2.27450991
112.61076355	2.17647052
112.61076355	2.15686274
112.61481476	2.25490189
112.61914063	2.39215684
112.62300873	2.43137264
112.62300873	2.41176462
112.62708282	2.27450991
112.63120270	2.17647052
112.63120270	2.19607854
112.63536835	2.35294127
112.63940430	2.49019599
112.64343262	2.54901958
112.64343262	2.49019599
112.64765930	2.35294127
112.65164185	2.25490189
112.65585327	2.25490189
112.65585327	2.37254906
112.65995789	2.47058821
112.66396332	2.47058821
112.66813660	2.35294127
112.66813660	2.23529410
112.67209625	2.23529410
112.67634583	2.31372547
112.67634583	2.43137264
112.68029022	2.47058821
112.68458557	2.47058821
112.68869019	2.39215684
112.68869019	2.29411769
112.69262695	2.29411769
112.69677734	2.39215684
112.70098877	2.49019599
112.70098877	2.50980401
112.70500946	2.45098042
112.70902252	2.33333325
112.71331024	2.27450991
112.71737671	2.41176462
112.72148895	2.49019599
112.72148895	2.50980401
112.72550201	2.43137264
112.72959137	2.31372547
112.73381805	2.21568632
112.73381805	2.25490189
112.73776245	2.37254906
112.74179077	2.45098042
112.74591064	2.43137264
112.74591064	2.31372547
112.75001526	2.27450991
112.75416565	2.29411769
112.75814819	2.47058821
112.76271820	2.49019599
112.76674652	2.41176462
112.76674652	2.33333325
112.77086639	2.29411769
112.77477264	2.29411769
112.77867889	2.39215684
112.77867889	2.45098042
112.78285217	2.47058821
112.78694916	2.43137264
112.79111481	2.37254906
112.79111481	2.33333325
112.79509735	2.33333325
112.79911804	2.43137264
112.80345154	2.45098042
112.80733490	2.33333325
112.81148529	2.23529410
112.81148529	2.23529410
112.81559753	2.33333325
112.81972504	2.47058821
112.82398987	2.52941179
112.82398987	2.47058821
112.82808685	2.33333325
112.83189392	2.27450991
112.83610535	2.33333325
112.83610535	2.43137264
112.84011078	2.50980401
112.84416199	2.50980401
112.84826660	2.27450991
112.85248566	2.27450991
112.85650635	2.35294127
112.85650635	2.47058821
112.86061096	2.56862736
112.86468506	2.50980401
112.86894226	2.37254906
112.86894226	2.27450991
112.87288666	2.29411769
112.87693787	2.41176462
112.88102722	2.52941179
112.88102722	2.56862736
112.88558960	2.50980401
112.88928223	2.39215684
112.89351654	2.23529410
112.89739990	2.35294127
112.90160370	2.47058821
112.90160370	2.50980401
112.90582275	2.45098042
112.90976715	2.35294127
112.91386414	2.33333325
112.91386414	2.43137264
112.91799927	2.56862736
112.92224884	2.60784316
112.92629242	2.54901958
112.92629242	2.41176462
112.93025970	2.33333325
112.93444824	2.33333325
112.93849182	2.54901958
112.94270325	2.54901958
112.94664764	2.45098042
112.94664764	2.33333325
112.95082092	2.29411769
112.95495605	2.35294127
112.95893860	2.50980401
112.95893860	2.58823538
112.96317291	2.60784316
112.96706390	2.47058821
112.97123718	2.33333325
112.97123718	2.27450991
112.97531128	2.29411769
112.97951508	2.41176462
112.98348236	2.52941179
112.98754120	2.45098042
112.99170685	2.37254906
112.99170685	2.33333325
112.99573517	2.45098042
112.99995422	2.56862736
113.00405884	2.58823538
113.00405884	2.49019599
113.00806427	2.31372547
113.01233673	2.25490189
113.01660156	2.29411769
113.01660156	2.43137264
113.02034760	2.54901958
113.02458954	2.54901958
113.02458954	2.47058821
113.02867889	2.35294127
113.03277588	2.33333325
113.03690338	2.41176462
113.03690338	2.52941179
113.04106903	2.58823538
113.04526520	2.54901958
113.04914856	2.39215684
113.04914856	2.33333325
113.05317688	2.37254906
113.05727386	2.49019599
113.06127930	2.56862736
113.06127930	2.62745094
113.06555176	2.56862736
113.06965637	2.50980401
113.06965637	2.43137264
113.07389832	2.47058821
113.07800293	2.58823538
113.08178711	2.66666675
113.08178711	2.62745094
113.08599091	2.52941179
113.09009552	2.43137264
113.09413910	2.41176462
113.09413910	2.47058821
113.09833527	2.54901958
113.10243225	2.56862736
113.10631561	2.50980401
113.10631561	2.39215684
113.11038208	2.31372547
113.11454773	2.29411769
113.11454773	2.41176462
113.11866760	2.54901958
113.12272644	2.58823538
113.12683868	2.45098042
113.12683868	2.33333325
113.13082886	2.27450991
113.13508606	2.31372547
113.13911438	2.41176462
113.13911438	2.47058821
113.14320374	2.47058821
113.14730835	2.37254906
113.15151978	2.27450991
113.15151978	2.25490189
113.15555573	2.29411769
113.15959930	2.41176462
113.15959930	2.45098042
113.16376495	2.37254906
113.16783142	2.25490189
113.17189026	2.19607854
113.17189026	2.27450991
113.17601776	2.45098042
113.18002319	2.66666675
113.18466949	2.78431368
113.18466949	2.80392146
113.18828583	2.78431368
113.19248962	2.74509811
113.19644928	2.80392146
113.20185852	2.80392146
113.20465088	2.64705873
113.20465088	2.33333325
113.20873260	2.03921580
113.21294403	1.82352936
113.21696472	1.80392158
113.21696472	1.90196073
113.22112274	2.00000000
113.22539520	2.01960778
113.22931671	1.94117641
113.22931671	1.92156863
113.23336029	2.00000000
113.23736572	2.15686274
113.24160767	2.45098042
113.24583435	2.45098042
113.24981689	2.37254906
113.24981689	2.33333325
113.25399017	2.43137264
113.25832367	2.58823538
113.26209259	2.68627453
113.26209259	2.66666675
113.26607513	2.54901958
113.27019501	2.41176462
113.27429199	2.35294127
113.27429199	2.43137264
113.27833557	2.56862736
113.28274536	2.64705873
113.28663635	2.52941179
113.29067230	2.47058821
113.29474640	2.49019599
113.29474640	2.56862736
113.29882050	2.62745094
113.30301666	2.60784316
113.30704498	2.52941179
113.30704498	2.41176462
113.31120300	2.41176462
113.31533813	2.47058821
113.31948090	2.58823538
113.31948090	2.64705873
113.32343292	2.62745094
113.32752228	2.50980401
113.33161163	2.43137264
113.33583832	2.52941179
113.33983612	2.66666675
113.33983612	2.72549009
113.34388733	2.70588231
113.34803772	2.56862736
113.35231018	2.52941179
113.35231018	2.50980401
113.35628510	2.60784316
113.36033630	2.70588231
113.36447144	2.74509811
113.36447144	2.70588231
113.36863708	2.56862736
113.37280273	2.52941179
113.37683105	2.70588231
113.38088226	2.82352948
113.38500214	2.80392146
113.38500214	2.68627453
113.38909912	2.56862736
113.39320374	2.52941179
113.39727783	2.60784316
113.39727783	2.78431368
113.40134430	2.86274505
113.40559387	2.84313726
113.40959930	2.74509811
113.40959930	2.66666675
113.41364288	2.66666675
113.41790771	2.74509811
113.42185974	2.86274505
113.42603302	2.80392146
113.42997742	2.66666675
113.42997742	2.62745094
113.43450928	2.64705873
113.43824768	2.78431368
113.44232178	2.84313726
113.44232178	2.78431368
113.44628143	2.68627453
113.45064545	2.56862736
113.45452118	2.52941179
113.45452118	2.56862736
113.45857239	2.64705873
113.46269989	2.68627453
113.46679688	2.56862736
113.47096252	2.50980401
113.47520447	2.49019599
113.47520447	2.50980401
113.47946167	2.54901958
113.48333740	2.56862736
113.48725891	2.49019599
113.48725891	2.37254906
113.49132538	2.29411769
113.49542999	2.33333325
113.49967957	2.45098042
113.49967957	2.52941179
113.50382996	2.49019599
113.50796509	2.35294127
113.50796509	2.21568632
113.51207733	2.15686274
113.51605225	2.21568632
113.52017212	2.33333325
113.52017212	2.41176462
113.52465057	2.43137264
113.52841949	2.31372547
113.53245544	2.25490189
113.53245544	2.25490189
113.53652954	2.35294127
113.54055023	2.41176462
113.54489136	2.43137264
113.54489136	2.35294127
113.54885864	2.23529410
113.55300903	2.19607854
113.55300903	2.25490189
113.55700684	2.37254906
113.56114197	2.45098042
113.56516266	2.43137264
113.56516266	2.29411769
113.56937408	2.21568632
113.57334900	2.21568632
113.57772827	2.29411769
113.57772827	2.41176462
113.58179474	2.43137264
113.58590698	2.39215684
113.58995056	2.29411769
113.58995056	2.21568632
113.59413910	2.23529410
113.59799957	2.37254906
113.59799957	2.49019599
113.60215759	2.54901958
113.60614777	2.47058821
113.61057281	2.35294127
113.61057281	2.29411769
113.61427307	2.35294127
113.61874390	2.45098042
113.62259674	2.50980401
113.62259674	2.47058821
113.62660217	2.37254906
113.63065338	2.31372547
113.63481903	2.31372547
113.63481903	2.37254906
113.63885498	2.45098042
113.64303589	2.49019599
113.64303589	2.45098042
113.64710999	2.35294127
113.65110016	2.31372547
113.65541840	2.31372547
113.65541840	2.43137264
113.65934753	2.54901958
113.66343689	2.58823538
113.66764832	2.50980401
113.66764832	2.37254906
113.67171478	2.31372547
113.67573547	2.31372547
113.67987823	2.41176462
113.67987823	2.52941179
113.68406677	2.56862736
113.68804932	2.49019599
113.68804932	2.41176462
113.69208527	2.37254906
113.69623566	2.45098042
113.70071411	2.58823538
113.70071411	2.62745094
113.70446777	2.54901958
113.70851898	2.35294127
113.71257782	2.25490189
113.71257782	2.25490189
113.71672821	2.39215684
113.72086334	2.52941179
113.72502899	2.47058821
113.72898102	2.33333325
113.73326111	2.31372547
113.73326111	2.37254906
113.73715210	2.49019599
113.74130249	2.54901958
113.74545288	2.52941179
113.74545288	2.41176462
113.74958801	2.31372547
113.75374603	2.31372547
113.75772095	2.43137264
113.75772095	2.52941179
113.76187897	2.56862736
113.76596069	2.50980401
113.77007294	2.37254906
113.77407074	2.39215684
113.77825928	2.50980401
113.77825928	2.62745094
113.78237915	2.64705873
113.78637695	2.54901958
113.79053497	2.43137264
113.79053497	2.37254906
113.79461670	2.37254906
113.79870605	2.47058821
113.80283356	2.54901958
113.80283356	2.54901958
113.80689240	2.43137264
113.81101227	2.35294127
113.81507874	2.39215684
113.81922150	2.54901958
113.82331085	2.60784316
113.82331085	2.52941179
113.82726288	2.41176462
113.83138275	2.35294127
113.83558655	2.35294127
113.83558655	2.45098042
113.83965302	2.52941179
113.84373474	2.56862736
113.84777832	2.49019599
113.84777832	2.41176462
113.85205078	2.37254906
113.85600281	2.43137264
113.86009979	2.68627453
113.86419678	2.68627453
113.86872101	2.52941179
113.86872101	2.43137264
113.87234497	2.39215684
113.87647247	2.43137264
113.88060760	2.54901958
113.88060760	2.60784316
113.88467407	2.54901958
113.88883209	2.39215684
113.89284515	2.37254906
113.89284515	2.37254906
113.89698792	2.49019599
113.90100098	2.56862736
113.90535736	2.45098042
113.90943146	2.33333325
113.91340637	2.31372547
113.91340637	2.37254906
113.91744995	2.49019599
113.92162323	2.56862736
113.92568970	2.56862736
113.92568970	2.50980401
113.92968750	2.43137264
113.93418121	2.41176462
113.93798065	2.47058821
113.93798065	2.54901958
113.94203186	2.62745094
113.94615936	2.58823538
113.95034027	2.37254906
113.95430756	2.35294127
113.95857239	2.47058821
113.95857239	2.52941179
113.96251678	2.50980401
113.96683502	2.39215684
113.97093964	2.29411769
113.97093964	2.31372547
113.97506714	2.39215684
113.97891998	2.54901958
113.98320770	2.60784316
113.98320770	2.58823538
113.98710632	2.49019599
113.99118042	2.39215684
113.99118042	2.39215684
113.99530029	2.47058821
113.99937439	2.58823538
114.00362396	2.66666675
114.00362396	2.64705873
114.00753021	2.54901958
114.01162720	2.49019599
114.01583862	2.50980401
114.01583862	2.58823538
114.01993561	2.66666675
114.02410889	2.64705873
114.02827454	2.54901958
114.02827454	2.43137264
114.03221130	2.39215684
114.03636169	2.45098042
114.03636169	2.62745094
114.04034424	2.70588231
114.04463196	2.66666675
114.04888153	2.54901958
114.04888153	2.43137264
114.05281067	2.39215684
114.05694580	2.45098042
114.06095123	2.54901958
114.06095123	2.60784316
114.06487274	2.50980401
114.06906128	2.35294127
114.07330322	2.27450991
114.07330322	2.27450991
114.07720947	2.39215684
114.08126831	2.47058821
114.08126831	2.50980401
114.08546448	2.39215684
114.08947754	2.27450991
114.09359741	2.23529410
114.09359741	2.29411769
114.09777832	2.43137264
114.10179138	2.50980401
114.10607147	2.49019599
114.10607147	2.35294127
114.10994720	2.27450991
114.11404419	2.25490189
114.11853027	2.35294127
114.11853027	2.45098042
114.12229919	2.54901958
114.12638092	2.54901958
114.12638092	2.50980401
114.13040161	2.56862736
114.13453674	2.68627453
114.13871765	2.88235283
114.13871765	3.00000000
114.14274597	3.00000000
114.14682770	2.88235283
114.15090942	2.68627453
114.15090942	2.47058821
114.15517426	2.33333325
114.15915680	2.23529410
114.16334534	2.09803915
114.16334534	1.94117641
114.16735840	1.74509799
114.17138672	1.66666663
114.17138672	1.72549021
114.17567444	1.84313726
114.17964172	2.03921580
114.18476868	2.21568632
114.18476868	2.27450991
114.18789673	2.21568632
114.19187164	2.21568632
114.19613647	2.29411769
114.19613647	2.43137264
114.20024872	2.54901958
114.20417786	2.56862736
114.20825195	2.39215684
114.21238708	2.37254906
114.21672058	2.45098042
114.21672058	2.58823538
114.22049713	2.64705873
114.22467041	2.64705873
114.22879791	2.52941179
114.22879791	2.43137264
114.23297882	2.41176462
114.23706818	2.47058821
114.24107361	2.54901958
114.24107361	2.62745094
114.24526978	2.60784316
114.24930573	2.49019599
114.25347137	2.47058821
114.25739288	2.60784316
114.26155853	2.70588231
114.26155853	2.72549009
114.26565552	2.62745094
114.26977539	2.50980401
114.27397156	2.45098042
114.27397156	2.52941179
114.27800751	2.64705873
114.28220367	2.68627453
114.28620148	2.64705873
114.28620148	2.56862736
114.29026794	2.49019599
114.29434967	2.45098042
114.29839325	2.64705873
114.30255890	2.66666675
114.30655670	2.60784316
114.30655670	2.50980401
114.31070709	2.47058821
114.31475830	2.50980401
114.31900024	2.64705873
114.31900024	2.70588231
114.32298279	2.72549009
114.32710266	2.66666675
114.33116913	2.56862736
114.33116913	2.52941179
114.33533478	2.54901958
114.33937836	2.66666675
114.34378815	2.72549009
114.34809875	2.58823538
114.35216522	2.52941179
114.35216522	2.52941179
114.35575104	2.68627453
114.35984802	2.80392146
114.36412811	2.80392146
114.36412811	2.70588231
114.36856079	2.58823538
114.37211609	2.52941179
114.37625885	2.56862736
114.37625885	2.68627453
114.38031769	2.74509811
114.38442993	2.74509811
114.38850403	2.50980401
114.39256287	2.47058821
114.39666748	2.56862736
114.39666748	2.68627453
114.40077209	2.72549009
114.40498352	2.68627453
114.40911865	2.54901958
114.40911865	2.39215684
114.41335297	2.37254906
114.41728210	2.43137264
114.42134094	2.52941179
114.42134094	2.52941179
114.42541504	2.45098042
114.42940521	2.37254906
114.43367767	2.31372547
114.43776703	2.39215684
114.44171906	2.47058821
114.44171906	2.47058821
114.44580841	2.37254906
114.44995880	2.23529410
114.45416260	2.19607854
114.45416260	2.25490189
114.45808411	2.35294127
114.46240234	2.39215684
114.46639252	2.35294127
114.46639252	2.21568632
114.47037506	2.15686274
114.47452545	2.13725495
114.47452545	2.29411769
114.47862244	2.41176462
114.48271942	2.45098042
114.48693085	2.33333325
114.48693085	2.17647052
114.49087524	2.09803915
114.49510956	2.13725495
114.49911499	2.29411769
114.49911499	2.41176462
114.50327301	2.43137264
114.50724030	2.31372547
114.51139832	2.21568632
114.51139832	2.15686274
114.51545715	2.23529410
114.51978302	2.35294127
114.51978302	2.43137264
114.52373505	2.41176462
114.52774811	2.33333325
114.53196716	2.21568632
114.53196716	2.21568632
114.53611755	2.33333325
114.54014587	2.41176462
114.54422760	2.43137264
114.54422760	2.35294127
114.54842377	2.21568632
114.55863953	2.15686274
114.55863953	2.19607854
114.55863953	2.35294127
114.56052399	2.45098042
114.56478119	2.45098042
114.56478119	2.31372547
114.56885529	2.23529410
114.57281494	2.23529410
114.57703400	2.31372547
114.57703400	2.41176462
114.58095551	2.45098042
114.58506775	2.39215684
114.58946991	2.31372547
114.58946991	2.31372547
114.59340668	2.33333325
114.59736633	2.43137264
114.60183716	2.52941179
114.60183716	2.54901958
114.60559082	2.45098042
114.60998535	2.29411769
114.60998535	2.19607854
114.61399841	2.25490189
114.61794281	2.35294127
114.62198639	2.49019599
114.62198639	2.52941179
114.62635040	2.39215684
114.63037872	2.27450991
114.63518524	2.19607854
114.63518524	2.25490189
114.63882446	2.33333325
114.64272308	2.45098042
114.64680481	2.45098042
114.64680481	2.37254906
114.65065002	2.27450991
114.65506744	2.31372547
114.65506744	2.41176462
114.65914154	2.50980401
114.66311646	2.56862736
114.66699219	2.47058821
114.66699219	2.31372547
114.67114258	2.29411769
114.67523193	2.33333325
114.67934418	2.45098042
114.67934418	2.50980401
114.68354797	2.47058821
114.68751526	2.37254906
114.69192505	2.29411769
114.69591522	2.35294127
114.70014954	2.43137264
114.70014954	2.45098042
114.70401764	2.45098042
114.70818329	2.39215684
114.71231079	2.37254906
114.71231079	2.33333325
114.71658325	2.43137264
114.72048950	2.52941179
114.72458649	2.58823538
114.72458649	2.45098042
114.72842407	2.29411769
114.73252106	2.27450991
114.73700714	2.49019599
114.74102783	2.60784316
114.74508667	2.56862736
114.74508667	2.41176462
114.74912262	2.33333325
114.75324249	2.33333325
114.75711823	2.39215684
114.75711823	2.50980401
114.76123047	2.54901958
114.76538086	2.49019599
114.76950836	2.35294127
114.76950836	2.31372547
114.77354431	2.31372547
114.77761078	2.43137264
114.78183746	2.54901958
114.78591156	2.45098042
114.78992462	2.39215684
114.78992462	2.35294127
114.79402924	2.41176462
114.79811096	2.49019599
114.80247498	2.56862736
114.80247498	2.52941179
114.80628967	2.43137264
114.81055450	2.37254906
114.81462097	2.31372547
114.81462097	2.41176462
114.81884003	2.50980401
114.82307434	2.54901958
114.82691193	2.43137264
114.83090973	2.33333325
114.83512878	2.33333325
114.83512878	2.43137264
114.83928680	2.50980401
114.84348297	2.54901958
114.84750366	2.45098042
114.84750366	2.35294127
114.85171509	2.33333325
114.85551453	2.41176462
114.85963440	2.54901958
114.85963440	2.62745094
114.86370850	2.58823538
114.86815643	2.49019599
114.87199402	2.37254906
114.87608337	2.45098042
114.88014221	2.50980401
114.88014221	2.54901958
114.88418579	2.54901958
114.88839722	2.45098042
114.89253998	2.41176462
114.89253998	2.43137264
114.89646149	2.50980401
114.90055084	2.60784316
114.90465546	2.62745094
114.90465546	2.54901958
114.90883636	2.45098042
114.91287231	2.43137264
114.91694641	2.58823538
114.92131805	2.62745094
114.92517853	2.64705873
114.92517853	2.60784316
114.92924500	2.54901958
114.93336487	2.50980401
114.93755341	2.58823538
114.93755341	2.66666675
114.94160461	2.64705873
114.94581604	2.56862736
114.95023346	2.45098042
114.95023346	2.39215684
114.95381927	2.41176462
114.95797729	2.54901958
114.95797729	2.62745094
114.96201324	2.64705873
114.96618652	2.56862736
114.97055817	2.43137264
114.97055817	2.39215684
114.97460175	2.43137264
114.97840118	2.56862736
114.98254395	2.60784316
114.98254395	2.54901958
114.98673248	2.41176462
114.99069977	2.29411769
114.99485016	2.29411769
114.99485016	2.33333325
114.99885559	2.47058821
115.00312805	2.50980401
115.00312805	2.49019599
115.00701904	2.35294127
115.01122284	2.25490189
115.01529694	2.27450991
115.01529694	2.41176462
115.01957703	2.49019599
115.02343750	2.50980401
115.02763367	2.47058821
115.02763367	2.39215684
115.03173065	2.43137264
115.03581238	2.49019599
115.04001617	2.66666675
115.04001617	2.80392146
115.04409027	2.90196085
115.04810333	2.86274505
115.04810333	2.78431368
115.05224609	2.78431368
115.05628967	2.82352948
115.06036377	2.88235283
115.06036377	2.76470590
115.06437683	2.50980401
115.06858063	2.13725495
115.07301331	1.88235295
115.07301331	1.80392158
115.07686615	1.88235295
115.08097839	1.92156863
115.08509827	2.00000000
115.08509827	1.98039210
115.08898163	1.96078432
115.09330750	1.96078432
115.09330750	2.13725495
115.09722137	2.35294127
115.10150146	2.49019599
115.10545349	2.50980401
115.10545349	2.39215684
115.10949707	2.29411769
115.11355591	2.29411769
115.11809540	2.37254906
115.11809540	2.50980401
115.12175751	2.56862736
115.12587738	2.50980401
115.12993622	2.33333325
115.12993622	2.27450991
115.13415527	2.31372547
115.13817596	2.49019599
115.13817596	2.64705873
115.14230347	2.68627453
115.14670563	2.56862736
115.15042877	2.35294127
115.15042877	2.25490189
115.15458679	2.37254906
115.15865326	2.58823538
115.16284180	2.70588231
115.16284180	2.66666675
115.16683960	2.52941179
115.17107391	2.43137264
115.17507172	2.45098042
115.17916870	2.58823538
115.18377686	2.60784316
115.18377686	2.58823538
115.18742371	2.45098042
115.19148254	2.37254906
115.19569397	2.37254906
115.19569397	2.47058821
115.19972992	2.58823538
115.20378113	2.62745094
115.20786285	2.49019599
115.20786285	2.37254906
115.21191406	2.31372547
115.21621704	2.33333325
115.22016144	2.58823538
115.22418213	2.62745094
115.22830200	2.49019599
115.22830200	2.43137264
115.23238373	2.41176462
115.23649597	2.47058821
115.24057770	2.56862736
115.24057770	2.60784316
115.24468994	2.54901958
115.24877167	2.43137264
115.25301361	2.43137264
115.25301361	2.45098042
115.25690460	2.60784316
115.26116180	2.66666675
115.26520538	2.60784316
115.26936340	2.50980401
115.27339172	2.45098042
115.27339172	2.45098042
115.27767944	2.56862736
115.28182983	2.60784316
115.28593445	2.56862736
115.28593445	2.43137264
115.28969574	2.43137264
115.29380035	2.41176462
115.29825592	2.50980401
115.29825592	2.58823538
115.30211639	2.62745094
115.30612183	2.56862736
115.31024933	2.39215684
115.31442261	2.33333325
115.31859589	2.41176462
115.31859589	2.43137264
115.32266998	2.41176462
115.32656860	2.29411769
115.33066559	2.19607854
115.33066559	2.11764717
115.33477020	2.19607854
115.33905029	2.23529410
115.34301758	2.25490189
115.34301758	2.17647052
115.34712219	2.11764717
115.35125732	2.00000000
115.35535431	2.00000000
115.35935974	2.11764717
115.36347198	2.17647052
115.36347198	2.17647052
115.36757660	2.03921580
115.37165833	1.94117641
115.37577057	1.92156863
115.37577057	2.01960778
115.37983704	2.09803915
115.38404083	2.11764717
115.38809967	1.96078432
115.38809967	1.84313726
115.39209747	1.80392158
115.39627838	1.90196073
115.40027618	2.09803915
115.40437317	2.05882359
115.40855408	1.96078432
115.40855408	1.88235295
115.41264343	1.88235295
115.41685486	2.00000000
115.42076111	2.09803915
115.42076111	2.17647052
115.42504883	2.13725495
115.42900085	2.03921580
115.43315125	1.96078432
115.43315125	1.98039210
115.43729401	2.05882359
115.44124603	2.13725495
115.44535828	2.05882359
115.44957733	1.92156863
115.45369720	1.88235295
115.45369720	1.96078432
115.45761871	2.15686274
115.46174622	2.21568632
115.46603394	2.19607854
115.46603394	2.05882359
115.47017670	1.98039210
115.47403717	1.96078432
115.47818756	2.09803915
115.47818756	2.19607854
115.48230743	2.21568632
115.48638916	2.13725495
115.48638916	2.01960778
115.49043274	1.96078432
115.49452209	1.98039210
115.49865723	2.09803915
115.49865723	2.21568632
115.50298309	2.25490189
115.50678253	2.17647052
115.51090240	2.07843137
115.51090240	2.01960778
115.51497650	2.07843137
115.51919556	2.17647052
115.52335358	2.25490189
115.52335358	2.23529410
115.52733612	2.11764717
115.53141785	2.03921580
115.53141785	2.00000000
115.53564453	2.09803915
115.53951263	2.17647052
115.54366302	2.21568632
115.54366302	2.13725495
115.54782867	2.03921580
115.55194092	2.00000000
115.55592346	2.09803915
115.55592346	2.21568632
115.56015778	2.31372547
115.56414032	2.29411769
115.56836700	2.17647052
115.56836700	2.07843137
115.57235718	2.05882359
115.57654572	2.15686274
115.57654572	2.29411769
115.58051300	2.37254906
115.58473969	2.33333325
115.58884430	2.19607854
115.58884430	2.13725495
115.59289551	2.09803915
115.59701538	2.17647052
115.60128784	2.27450991
115.60128784	2.29411769
115.60517883	2.25490189
115.60935974	2.17647052
115.61342621	2.11764717
115.61342621	2.17647052
115.61766815	2.29411769
115.62156677	2.35294127
115.62156677	2.35294127
115.62573242	2.27450991
115.62974548	2.17647052
115.63386536	2.19607854
115.63386536	2.27450991
115.63796234	2.41176462
115.64197540	2.43137264
115.64623260	2.39215684
115.64623260	2.29411769
115.65023804	2.21568632
115.65439606	2.17647052
115.65842438	2.43137264
115.66264343	2.47058821
115.66663361	2.41176462
115.66663361	2.27450991
115.67060852	2.23529410
115.67475128	2.31372547
115.67880249	2.45098042
115.67880249	2.54901958
115.68293762	2.54901958
115.68692780	2.45098042
115.69116211	2.31372547
115.69116211	2.25490189
115.69512939	2.29411769
115.69915771	2.39215684
115.70336914	2.33333325
115.70742798	2.21568632
115.71150208	2.13725495
115.71150208	2.09803915
115.71586609	2.21568632
115.71993256	2.35294127
115.72410583	2.45098042
115.72410583	2.37254906
115.72819519	2.19607854
115.73238373	2.07843137
115.73618317	2.11764717
115.73618317	2.27450991
115.74023438	2.43137264
115.74433899	2.43137264
115.74843597	2.21568632
115.75261688	2.17647052
115.75688934	2.19607854
115.75688934	2.29411769
115.76070404	2.37254906
115.76488495	2.37254906
115.76899719	2.31372547
115.76899719	2.25490189
115.77301025	2.29411769
115.77713013	2.45098042
115.78130341	2.62745094
115.78130341	2.76470590
115.78537750	2.72549009
115.78943634	2.56862736
115.79351807	2.52941179
115.79766846	2.62745094
115.80197906	2.62745094
115.80197906	2.47058821
115.80580902	2.17647052
115.80990601	1.90196073
115.81409454	1.78431368
115.81409454	1.78431368
115.81816864	1.86274505
115.82224274	1.88235295
115.82632446	1.90196073
115.82632446	1.84313726
115.83049774	1.86274505
115.83489990	1.94117641
115.83863068	2.33333325
115.84268188	2.45098042
115.84678650	2.41176462
115.84678650	2.33333325
115.85115051	2.33333325
115.85501099	2.37254906
115.85909271	2.50980401
115.85909271	2.54901958
115.86315155	2.54901958
115.86728668	2.45098042
115.87138367	2.43137264
115.87138367	2.47058821
115.87546539	2.52941179
115.87963867	2.66666675
115.88376617	2.62745094
115.88782501	2.49019599
115.89196777	2.39215684
115.89196777	2.37254906
115.89598083	2.47058821
115.90013123	2.56862736
115.90425873	2.62745094
115.90425873	2.56862736
115.90842438	2.45098042
115.91235352	2.41176462
115.91651917	2.45098042
115.91651917	2.58823538
115.92051697	2.64705873
115.92478180	2.68627453
115.92872620	2.52941179
115.93305206	2.50980401
115.93700409	2.56862736
115.93700409	2.66666675
115.94097137	2.72549009
115.94515991	2.72549009
115.94921112	2.62745094
115.94921112	2.54901958
115.95343781	2.54901958
115.95738220	2.64705873
115.96154022	2.74509811
115.96154022	2.76470590
115.96556091	2.70588231
115.96987915	2.56862736
115.96987915	2.50980401
115.97381592	2.54901958
115.97788239	2.68627453
115.98204803	2.82352948
115.98204803	2.82352948
115.98642731	2.72549009
115.99021149	2.58823538
115.99431610	2.54901958
115.99431610	2.64705873
115.99835968	2.78431368
116.00260162	2.84313726
116.00657654	2.78431368
116.00657654	2.66666675
116.01065063	2.60784316
116.01483154	2.62745094
116.01483154	2.72549009
116.01895905	2.80392146
116.02302551	2.80392146
116.02710724	2.68627453
116.02710724	2.56862736
116.03124237	2.50980401
116.03534698	2.50980401
116.03942871	2.62745094
116.03942871	2.72549009
116.04349518	2.72549009
116.04763794	2.58823538
116.05186462	2.47058821
116.05186462	2.41176462
116.05573273	2.43137264
116.05991364	2.52941179
116.05991364	2.58823538
116.06390381	2.52941179
116.06823730	2.37254906
116.07221985	2.29411769
116.07221985	2.23529410
116.07639313	2.35294127
116.08039093	2.45098042
116.08446503	2.49019599
116.08446503	2.39215684
116.08866882	2.25490189
116.09278107	2.19607854
116.09691620	2.23529410
116.09691620	2.31372547
116.10086060	2.37254906
116.10488892	2.33333325
116.10488892	2.21568632
116.10897827	2.11764717
116.11306763	2.09803915
116.11724091	2.19607854
116.11724091	2.31372547
116.12127686	2.37254906
116.12543488	2.29411769
116.12963104	2.17647052
116.12963104	2.11764717
116.13355255	2.11764717
116.13785553	2.21568632
116.14195251	2.25490189
116.14195251	2.27450991
116.14581299	2.19607854
116.14989471	2.15686274
116.14989471	2.13725495
116.15409088	2.17647052
116.15825653	2.27450991
116.16244507	2.35294127
116.16244507	2.39215684
116.16635132	2.29411769
116.17053223	2.19607854
116.17449951	2.13725495
116.17449951	2.17647052
116.17857361	2.31372547
116.18286896	2.37254906
116.18700409	2.21568632
116.19109344	2.15686274
116.19509125	2.17647052
116.19509125	2.29411769
116.19916534	2.39215684
116.20323181	2.39215684
116.20730591	2.27450991
116.20730591	2.15686274
116.21144867	2.13725495
116.21549988	2.19607854
116.21983337	2.31372547
116.21983337	2.39215684
116.22378540	2.41176462
116.22783661	2.33333325
116.23189545	2.21568632
116.23602295	2.27450991
116.24008942	2.39215684
116.24008942	2.43137264
116.24414063	2.37254906
116.24829102	2.23529410
116.25254059	2.15686274
116.25254059	2.15686274
116.25645447	2.27450991
116.26055145	2.39215684
116.26551819	2.37254906
116.26551819	2.27450991
116.26885223	2.17647052
116.27280426	2.15686274
116.27700043	2.35294127
116.28128815	2.43137264
116.28520203	2.41176462
116.28520203	2.27450991
116.28938293	2.17647052
116.29351807	2.13725495
116.29786682	2.23529410
116.29786682	2.37254906
116.30158997	2.45098042
116.30556488	2.39215684
116.30972290	2.25490189
116.30972290	2.17647052
116.31398010	2.19607854
116.31822968	2.33333325
116.32199097	2.47058821
116.32611084	2.37254906
116.33016205	2.21568632
116.33016205	2.19607854
116.33435822	2.23529410
116.33842468	2.39215684
116.34256744	2.45098042
116.34256744	2.43137264
116.34661865	2.33333325
116.35116577	2.27450991
116.35478210	2.25490189
116.35478210	2.31372547
116.35887146	2.45098042
116.36296082	2.49019599
116.36708832	2.37254906
116.37115479	2.31372547
116.37530518	2.35294127
116.37530518	2.47058821
116.37935638	2.60784316
116.38351440	2.60784316
116.38760376	2.52941179
116.38760376	2.37254906
116.39161682	2.31372547
116.39569092	2.35294127
116.39986420	2.45098042
116.39986420	2.54901958
116.40387726	2.49019599
116.40814209	2.39215684
116.41235352	2.27450991
116.41646576	2.35294127
116.42042542	2.43137264
116.42042542	2.45098042
116.42446136	2.41176462
116.42848206	2.29411769
116.43261719	2.23529410
116.43261719	2.25490189
116.43676758	2.35294127
116.44087219	2.47058821
116.44507599	2.47058821
116.44507599	2.39215684
116.44898224	2.29411769
116.45324707	2.23529410
116.45324707	2.25490189
116.45737457	2.35294127
116.46157074	2.41176462
116.46578217	2.39215684
116.46578217	2.27450991
116.46959686	2.17647052
116.47365570	2.13725495
116.47793579	2.27450991
116.47793579	2.41176462
116.48183441	2.50980401
116.48600769	2.49019599
116.49028778	2.39215684
116.49028778	2.39215684
116.49406433	2.50980401
116.49825287	2.76470590
116.49825287	2.96078420
116.50238037	3.00000000
116.50662231	2.86274505
116.51056671	2.72549009
116.51056671	2.56862736
116.51486206	2.50980401
116.51897430	2.43137264
116.52291870	2.27450991
116.52291870	2.09803915
116.52721405	1.88235295
116.53140259	1.76470590
116.53498840	1.72549021
116.53498840	1.80392158
116.53930664	1.94117641
116.54354095	2.05882359
116.54354095	2.09803915
116.54743195	2.09803915
116.55145264	2.11764717
116.55570221	2.21568632
116.55570221	2.33333325
116.55976868	2.45098042
116.56394196	2.50980401
116.56813049	2.45098042
116.56813049	2.33333325
116.57204437	2.29411769
116.57614136	2.35294127
116.58045197	2.49019599
116.58045197	2.66666675
116.58457947	2.70588231
116.58866119	2.64705873
116.58866119	2.56862736
116.59249115	2.54901958
116.59642792	2.60784316
116.60056305	2.72549009
116.60056305	2.80392146
116.60459900	2.74509811
116.60871887	2.54901958
116.61281586	2.47058821
116.61281586	2.47058821
116.61699677	2.56862736
116.62107086	2.64705873
116.62514496	2.64705873
116.62514496	2.58823538
116.62933350	2.49019599
116.63339233	2.45098042
116.63339233	2.47058821
116.63744354	2.62745094
116.64192200	2.76470590
116.64564514	2.74509811
116.64564514	2.60784316
116.64965820	2.54901958
116.65383148	2.56862736
116.65802002	2.70588231
116.65802002	2.84313726
116.66199493	2.92156863
116.66623688	2.88235283
116.67066193	2.58823538
116.67442322	2.52941179
116.67835236	2.58823538
116.67835236	2.62745094
116.68247986	2.66666675
116.68672180	2.60784316
116.69074249	2.50980401
116.69074249	2.49019599
116.69486237	2.54901958
116.69885254	2.70588231
116.70323944	2.82352948
116.70323944	2.84313726
116.70721436	2.76470590
116.71138763	2.72549009
116.71575928	2.80392146
116.71978760	2.92156863
116.72375488	2.96078420
116.72375488	2.92156863
116.72757721	2.76470590
116.73166656	2.64705873
116.73589325	2.62745094
116.73589325	2.72549009
116.73982239	2.78431368
116.74392700	2.74509811
116.74803925	2.52941179
116.74803925	2.39215684
116.75222015	2.39215684
116.75646210	2.47058821
116.76046753	2.76470590
116.76502991	2.76470590
116.76899719	2.60784316
116.76899719	2.50980401
116.77295685	2.49019599
116.77737427	2.58823538
116.78155518	2.70588231
116.78155518	2.74509811
116.78496552	2.68627453
116.78930664	2.45098042
116.79307556	2.33333325
116.79307556	2.29411769
116.79721069	2.35294127
116.80148315	2.39215684
116.80554199	2.21568632
116.80946350	2.07843137
116.81362915	2.03921580
116.81362915	2.13725495
116.81768036	2.29411769
116.82186127	2.43137264
116.82588196	2.45098042
116.82588196	2.33333325
116.82989502	2.23529410
116.83430481	2.23529410
116.83809662	2.39215684
116.83809662	2.50980401
116.84242249	2.56862736
116.84638977	2.52941179
116.85050964	2.17647052
116.85466766	2.15686274
116.85907745	2.25490189
116.85907745	2.31372547
116.86264801	2.25490189
116.86675262	2.15686274
116.87109375	2.09803915
116.87109375	2.05882359
116.87493896	2.11764717
116.87906647	2.27450991
116.88323212	2.43137264
116.88323212	2.47058821
116.88728333	2.39215684
116.89141083	2.33333325
116.89543915	2.49019599
116.89954376	2.60784316
116.90372467	2.64705873
116.90372467	2.56862736
116.90784454	2.37254906
116.91184998	2.27450991
116.91597748	2.25490189
116.91597748	2.31372547
116.92010498	2.35294127
116.92414856	2.35294127
116.92828369	2.25490189
116.92828369	2.17647052
116.93254852	2.11764717
116.93656921	2.19607854
116.93656921	2.33333325
116.94062042	2.50980401
116.94463348	2.50980401
116.94879913	2.41176462
116.94879913	2.37254906
116.95298004	2.41176462
116.95693970	2.54901958
116.96105957	2.70588231
116.96105957	2.74509811
116.96511841	2.66666675
116.96940613	2.43137264
116.97335815	2.31372547
116.97335815	2.31372547
116.97746277	2.41176462
116.98153687	2.47058821
116.98153687	2.41176462
116.98569489	2.29411769
116.98970795	2.15686274
116.99383545	2.13725495
116.99383545	2.25490189
116.99790192	2.43137264
117.00217438	2.58823538
117.00621033	2.62745094
117.00621033	2.54901958
117.01036072	2.49019599
117.01442719	2.52941179
117.01844025	2.64705873
117.01844025	2.74509811
117.02246094	2.74509811
117.02659607	2.64705873
117.02659607	2.39215684
117.03072357	2.31372547
117.03483582	2.31372547
117.03887177	2.39215684
117.03887177	2.49019599
117.04325867	2.49019599
117.04725647	2.39215684
117.05146790	2.25490189
117.05146790	2.19607854
117.05524445	2.23529410
117.05934906	2.37254906
117.06354523	2.50980401
117.06354523	2.58823538
117.06771851	2.56862736
117.07179260	2.56862736
117.07179260	2.58823538
117.07575226	2.72549009
117.08000946	2.84313726
117.08396149	2.86274505
117.08396149	2.78431368
117.08805084	2.58823538
117.09207153	2.45098042
117.09635162	2.39215684
117.09635162	2.45098042
117.10067749	2.49019599
117.10448456	2.47058821
117.10873413	2.37254906
117.10873413	2.25490189
117.11259460	2.23529410
117.11683655	2.29411769
117.11683655	2.45098042
117.12078857	2.62745094
117.12490082	2.66666675
117.12901306	2.56862736
117.12901306	2.50980401
117.13359070	2.56862736
117.13725281	2.64705873
117.14129639	2.70588231
117.14129639	2.72549009
117.14543152	2.68627453
117.14952087	2.49019599
117.15366364	2.31372547
117.15780640	2.37254906
117.16175842	2.45098042
117.16175842	2.47058821
117.16595459	2.39215684
117.16988373	2.21568632
117.17420959	2.13725495
117.17420959	2.17647052
117.17812347	2.35294127
117.18245697	2.50980401
117.18673706	2.56862736
117.18673706	2.52941179
117.19039154	2.50980401
117.19451904	2.58823538
117.19859314	2.86274505
117.20287323	2.86274505
117.20687866	2.82352948
117.20687866	2.66666675
117.21097565	2.64705873
117.21504974	2.76470590
117.21921539	2.94117641
117.21921539	3.01960778
117.22319794	2.98039222
117.22734833	2.80392146
117.23139954	2.54901958
117.23139954	2.35294127
117.23565674	2.21568632
117.23960114	2.17647052
117.24368286	2.09803915
117.24778748	2.00000000
117.25205994	1.98039210
117.25205994	2.05882359
117.25592804	2.23529410
117.26012421	2.43137264
117.26426697	2.58823538
117.26426697	2.56862736
117.26834106	2.37254906
117.27272797	2.31372547
117.27655792	2.29411769
117.27655792	2.41176462
117.28060150	2.49019599
117.28470612	2.49019599
117.28877258	2.27450991
117.29283142	2.25490189
117.29741669	2.33333325
117.29741669	2.52941179
117.30139923	2.70588231
117.30516052	2.72549009
117.30932617	2.68627453
117.30932617	2.66666675
117.31334686	2.70588231
117.31755066	2.86274505
117.32154846	2.92156863
117.32154846	2.94117641
117.32568359	2.82352948
117.32975769	2.62745094
117.33385468	2.47058821
117.33798218	2.54901958
117.34196472	2.60784316
117.34196472	2.56862736
117.34617615	2.43137264
117.35015869	2.33333325
117.35432434	2.29411769
117.35432434	2.41176462
117.35842133	2.56862736
117.36254883	2.72549009
117.36653900	2.76470590
117.36653900	2.68627453
117.37069702	2.64705873
117.37478638	2.70588231
117.37880707	2.98039222
117.38318634	3.03921580
117.38706970	2.94117641
117.38706970	2.70588231
117.39123535	2.54901958
117.39550781	2.49019599
117.39936066	2.60784316
117.39936066	2.68627453
117.40349579	2.68627453
117.40773010	2.58823538
117.41193390	2.45098042
117.41193390	2.37254906
117.41595459	2.45098042
117.41993713	2.60784316
117.41993713	2.76470590
117.42386627	2.82352948
117.42803192	2.76470590
117.43217468	2.72549009
117.43217468	2.72549009
117.43640137	2.80392146
117.44033051	2.94117641
117.44441986	3.01960778
117.44441986	2.98039222
117.44845581	2.76470590
117.45265198	2.64705873
117.45668793	2.64705873
117.45668793	2.68627453
117.46076965	2.68627453
117.46511078	2.60784316
117.46511078	2.47058821
117.46911621	2.33333325
117.47312164	2.29411769
117.47728729	2.35294127
117.47728729	2.52941179
117.48129272	2.70588231
117.48538208	2.72549009
117.48958588	2.60784316
117.48958588	2.50980401
117.49356842	2.50980401
117.49765778	2.60784316
117.50192261	2.70588231
117.50192261	2.74509811
117.50580597	2.64705873
117.50995636	2.41176462
117.50995636	2.27450991
117.51406097	2.27450991
117.51827240	2.37254906
117.52233124	2.39215684
117.52233124	2.33333325
117.52627563	2.17647052
117.53050232	2.00000000
117.53456879	1.96078432
117.53456879	2.05882359
117.53865814	2.23529410
117.54274750	2.39215684
117.54714203	2.41176462
117.54714203	2.33333325
117.55121613	2.27450991
117.55503845	2.27450991
117.55503845	2.41176462
117.55922699	2.50980401
117.56325531	2.54901958
117.56736755	2.49019599
117.56736755	2.27450991
117.57140350	2.19607854
117.57547760	2.19607854
117.57953644	2.29411769
117.57953644	2.33333325
117.58370209	2.29411769
117.58781433	2.21568632
117.59206390	2.09803915
117.59206390	2.05882359
117.59597015	2.13725495
117.60012054	2.29411769
117.60012054	2.41176462
117.60417175	2.45098042
117.60836792	2.35294127
117.61252594	2.31372547
117.61252594	2.37254906
117.61650848	2.49019599
117.62056732	2.58823538
117.62465668	2.60784316
117.62465668	2.54901958
117.62870789	2.37254906
117.63297272	2.25490189
117.63696289	2.37254906
117.64128113	2.43137264
117.64549255	2.45098042
117.64549255	2.31372547
117.64958954	2.19607854
117.65357208	2.17647052
117.65751648	2.25490189
117.65751648	2.37254906
117.66153717	2.43137264
117.66561127	2.43137264
117.66978455	2.41176462
117.66978455	2.41176462
117.67382050	2.49019599
117.67784882	2.64705873
117.68196869	2.70588231
117.68617249	2.60784316
117.69018555	2.41176462
117.69018555	2.27450991
117.69435883	2.23529410
117.69837952	2.35294127
117.70266724	2.41176462
117.70266724	2.43137264
117.70661926	2.35294127
117.71080780	2.23529410
117.71494293	2.19607854
117.71494293	2.27450991
117.71891785	2.43137264
117.72302246	2.54901958
117.72702026	2.43137264
117.73110962	2.37254906
117.73529816	2.41176462
117.73529816	2.58823538
117.73929596	2.70588231
117.74339294	2.70588231
117.74752045	2.60784316
117.74752045	2.41176462
117.75169373	2.29411769
117.75582123	2.29411769
117.76009369	2.37254906
117.76009369	2.39215684
117.76395416	2.39215684
117.76810455	2.25490189
117.77207947	2.15686274
117.77613831	2.21568632
117.78046417	2.41176462
117.78046417	2.54901958
117.78446198	2.54901958
117.78846741	2.47058821
117.79262543	2.43137264
117.79262543	2.45098042
117.79709625	2.56862736
117.80115509	2.64705873
117.80488586	2.68627453
117.80488586	2.56862736
117.80899048	2.39215684
117.81304169	2.29411769
117.81728363	2.33333325
117.82134247	2.37254906
117.82556152	2.39215684
117.82556152	2.29411769
117.82983398	2.19607854
117.83358002	2.17647052
117.83786011	2.25490189
117.83786011	2.41176462
117.84189606	2.50980401
117.84602356	2.54901958
117.84987640	2.45098042
117.84987640	2.39215684
117.85421753	2.41176462
117.85829926	2.52941179
117.86231232	2.60784316
117.86624908	2.52941179
117.87045288	2.37254906
117.87045288	2.29411769
117.87451935	2.31372547
117.87887573	2.39215684
117.88279724	2.43137264
117.88279724	2.39215684
117.88685608	2.29411769
117.89096832	2.21568632
117.89501953	2.19607854
117.89501953	2.27450991
117.89938354	2.35294127
117.90332031	2.39215684
117.90730286	2.23529410
117.91155243	2.19607854
117.91551971	2.23529410
117.91551971	2.33333325
117.91986847	2.43137264
117.92379761	2.41176462
117.92774200	2.31372547
117.92774200	2.21568632
117.93195343	2.17647052
117.93623352	2.23529410
117.94026184	2.35294127
117.94026184	2.43137264
117.94413757	2.41176462
117.94826508	2.33333325
117.94826508	2.25490189
117.95239258	2.25490189
117.95654297	2.35294127
117.96054840	2.45098042
117.96054840	2.47058821
117.96465302	2.41176462
117.96886444	2.31372547
117.97298431	2.25490189
117.97298431	2.25490189
117.97698212	2.37254906
117.98102570	2.41176462
117.98516846	2.45098042
117.98516846	2.35294127
117.98919678	2.25490189
117.99332428	2.21568632
117.99332428	2.27450991
117.99740601	2.39215684
118.00164795	2.45098042
118.00568390	2.41176462
118.00568390	2.27450991
118.00978088	2.23529410
118.01386261	2.25490189
118.01813507	2.37254906
118.01813507	2.45098042
118.02204895	2.49019599
118.02616119	2.41176462
118.03017426	2.35294127
118.03017426	2.35294127
118.03440857	2.37254906
118.03842163	2.47058821
118.03842163	2.49019599
118.04262543	2.47058821
118.04657745	2.35294127
118.05077362	2.29411769
118.05077362	2.25490189
118.05493927	2.31372547
118.05895233	2.43137264
118.06292725	2.49019599
118.06292725	2.50980401
118.06712341	2.39215684
118.07122040	2.31372547
118.07524109	2.29411769
118.07524109	2.37254906
118.07940674	2.45098042
118.08360291	2.52941179
118.08360291	2.43137264
118.08788300	2.35294127
118.09187317	2.29411769
118.09597778	2.33333325
118.09597778	2.47058821
118.09986877	2.54901958
118.10393524	2.56862736
118.10805511	2.43137264
118.10805511	2.33333325
118.11216736	2.27450991
118.11619568	2.37254906
118.12036896	2.54901958
118.12438202	2.52941179
118.12860107	2.39215684
118.12860107	2.33333325
118.13255310	2.33333325
118.13678741	2.41176462
118.14086151	2.50980401
118.14086151	2.56862736
118.14505768	2.49019599
118.14905548	2.37254906
118.15312958	2.27450991
118.15312958	2.29411769
118.15718079	2.41176462
118.16138458	2.49019599
118.16536713	2.47058821
118.16957855	2.35294127
118.17379761	2.31372547
118.17379761	2.37254906
118.17766571	2.50980401
118.18180847	2.60784316
118.18597412	2.56862736
118.18597412	2.39215684
118.18992615	2.29411769
118.19406891	2.27450991
118.19821167	2.39215684
118.19821167	2.50980401
118.20236206	2.54901958
118.20629120	2.47058821
118.21058655	2.29411769
118.21452332	2.33333325
118.21868134	2.43137264
118.21868134	2.50980401
118.22292328	2.52941179
118.22678375	2.43137264
118.23090363	2.35294127
118.23090363	2.33333325
118.23506165	2.41176462
118.23906708	2.52941179
118.24318695	2.60784316
118.24318695	2.58823538
118.24727631	2.47058821
118.25148773	2.37254906
118.25562286	2.45098042
118.25962067	2.54901958
118.26369476	2.58823538
118.26369476	2.56862736
118.26777649	2.45098042
118.27180481	2.43137264
118.27591705	2.47058821
118.27591705	2.60784316
118.28005981	2.66666675
118.28419495	2.62745094
118.28822327	2.54901958
118.28822327	2.43137264
118.29225922	2.41176462
118.29668427	2.47058821
118.30090332	2.64705873
118.30464172	2.64705873
118.30873108	2.52941179
118.30873108	2.45098042
118.31278992	2.43137264
118.31694794	2.52941179
118.32097626	2.60784316
118.32097626	2.56862736
118.32508087	2.49019599
118.32924652	2.35294127
118.33341217	2.29411769
118.33341217	2.33333325
118.33735657	2.49019599
118.34148407	2.58823538
118.34558105	2.43137264
118.34982300	2.29411769
118.35384369	2.27450991
118.35384369	2.35294127
118.35785675	2.47058821
118.36200714	2.50980401
118.36611938	2.45098042
118.36611938	2.35294127
118.37023163	2.33333325
118.37429810	2.35294127
118.37839508	2.45098042
118.37839508	2.56862736
118.38246918	2.58823538
118.38674164	2.52941179
118.39073944	2.45098042
118.39472961	2.58823538
118.39912415	2.80392146
118.39912415	2.94117641
118.40290833	2.92156863
118.40721893	2.76470590
118.41126251	2.56862736
118.41126251	2.41176462
118.41529083	2.31372547
118.41933441	2.25490189
118.42348480	2.17647052
118.42348480	2.05882359
118.42751312	1.92156863
118.43164825	1.86274505
118.43164825	1.90196073
118.43590546	2.01960778
118.44009399	2.21568632
118.44399261	2.29411769
118.44399261	2.29411769
118.44820404	2.25490189
118.45220947	2.29411769
118.45633698	2.35294127
118.45633698	2.49019599
118.46035004	2.56862736
118.46442413	2.58823538
118.46864319	2.45098042
118.46864319	2.35294127
118.47264099	2.31372547
118.47668457	2.43137264
118.47668457	2.58823538
118.48077393	2.68627453
118.48491669	2.64705873
118.48904419	2.49019599
118.48904419	2.43137264
118.49320221	2.41176462
118.49717712	2.50980401
118.50148010	2.62745094
118.50148010	2.64705873
118.50545502	2.56862736
118.50955963	2.50980401
118.51362610	2.45098042
118.51362610	2.47058821
118.51770020	2.60784316
118.52174377	2.68627453
118.52174377	2.66666675
118.52579498	2.56862736
118.53002167	2.47058821
118.53412628	2.47058821
118.53412628	2.54901958
118.53820801	2.66666675
118.54234314	2.68627453
118.54676056	2.62745094
118.54676056	2.52941179
118.55053711	2.47058821
118.55452728	2.50980401
118.55860901	2.60784316
118.55860901	2.72549009
118.56273651	2.72549009
118.56692505	2.66666675
118.56692505	2.50980401
118.57099915	2.50980401
118.57517242	2.54901958
118.57900238	2.68627453
118.57900238	2.72549009
118.58319855	2.74509811
118.58727264	2.66666675
118.59136963	2.60784316
118.59136963	2.60784316
118.59539795	2.70588231
118.59965515	2.82352948
118.60368347	2.78431368
118.60774231	2.66666675
118.61189270	2.60784316
118.61189270	2.60784316
118.61598206	2.74509811
118.62013245	2.84313726
118.62432098	2.88235283
118.62432098	2.76470590
118.62831879	2.62745094
118.63251495	2.56862736
118.63652802	2.60784316
118.63652802	2.74509811
118.64086151	2.86274505
118.64488983	2.86274505
118.64890289	2.60784316
118.65290833	2.56862736
118.65695953	2.64705873
118.65695953	2.80392146
118.66107178	2.84313726
118.66513062	2.74509811
118.66940308	2.54901958
118.66940308	2.45098042
118.67328644	2.49019599
118.67743683	2.58823538
118.68163300	2.64705873
118.68163300	2.64705873
118.68567657	2.52941179
118.68997955	2.39215684
118.69375610	2.39215684
118.69788361	2.49019599
118.70216370	2.54901958
118.70216370	2.54901958
118.70613861	2.35294127
118.71022034	2.23529410
118.71449280	2.19607854
118.71449280	2.31372547
118.71887970	2.43137264
118.72248840	2.47058821
118.72658539	2.41176462
118.72658539	2.31372547
118.73063660	2.23529410
118.73483276	2.23529410
118.73887634	2.47058821
118.74294281	2.50980401
118.74706268	2.43137264
118.74706268	2.29411769
118.75128937	2.21568632
118.75530243	2.23529410
118.75931549	2.35294127
118.75931549	2.45098042
118.76371002	2.49019599
118.76782227	2.39215684
118.77169037	2.31372547
118.77169037	2.27450991
118.77595520	2.35294127
118.77989960	2.45098042
118.78391266	2.37254906
118.78807068	2.25490189
118.79215240	2.21568632
118.79215240	2.25490189
118.79646301	2.35294127
118.80037689	2.45098042
118.80435944	2.47058821
118.80435944	2.39215684
118.80842590	2.23529410
118.81291962	2.19607854
118.81683350	2.23529410
118.81683350	2.35294127
118.82105255	2.45098042
118.82514954	2.43137264
118.82917023	2.29411769
118.83317566	2.31372547
118.83731842	2.37254906
118.83731842	2.49019599
118.84124756	2.50980401
118.84545135	2.47058821
118.84946442	2.31372547
118.84946442	2.29411769
118.85361481	2.29411769
118.85763550	2.41176462
118.86176300	2.47058821
118.86176300	2.43137264
118.86597443	2.33333325
118.86995697	2.25490189
118.87403107	2.33333325
118.87812805	2.45098042
118.88226318	2.49019599
118.88226318	2.45098042
118.88642120	2.33333325
118.89044189	2.27450991
118.89459229	2.27450991
118.89459229	2.41176462
118.89859772	2.52941179
118.90270233	2.58823538
118.90696716	2.52941179
118.90696716	2.39215684
118.91094971	2.33333325
118.91506195	2.33333325
118.91506195	2.39215684
118.91907501	2.47058821
118.92324066	2.49019599
118.92724609	2.39215684
118.92724609	2.29411769
118.93136597	2.23529410
118.93554688	2.31372547
118.93974304	2.43137264
118.93974304	2.45098042
118.94391632	2.39215684
118.94778442	2.29411769
118.95205688	2.27450991
118.95205688	2.27450991
118.95590210	2.39215684
118.96012878	2.47058821
118.96012878	2.52941179
118.96416473	2.47058821
118.96835327	2.33333325
118.97278595	2.29411769
118.97278595	2.31372547
118.97643280	2.41176462
118.98050690	2.45098042
118.98469543	2.45098042
118.98469543	2.37254906
118.98866272	2.27450991
118.99278259	2.27450991
118.99691772	2.33333325
118.99691772	2.43137264
119.00109100	2.45098042
119.00508881	2.41176462
119.00508881	2.29411769
119.00933075	2.19607854
119.01358795	2.25490189
119.01739502	2.31372547
119.01739502	2.43137264
119.02165222	2.45098042
119.02565765	2.41176462
119.02979279	2.29411769
119.02979279	2.23529410
119.03384399	2.27450991
119.03813934	2.35294127
119.04205322	2.41176462
119.04205322	2.41176462
119.04610443	2.33333325
119.05031586	2.25490189
119.05031586	2.21568632
119.05538940	2.29411769
119.05865479	2.39215684
119.06286621	2.47058821
119.06286621	2.39215684
119.06669617	2.29411769
119.07068634	2.23529410
119.07480621	2.21568632
119.07480621	2.33333325
119.07890320	2.45098042
119.08304596	2.47058821
119.08709717	2.25490189
119.09112549	2.19607854
119.09558105	2.21568632
119.09558105	2.37254906
119.09928894	2.47058821
119.10349274	2.50980401
119.10755157	2.41176462
119.10755157	2.27450991
119.11164093	2.21568632
119.11587524	2.25490189
119.11989594	2.39215684
119.11989594	2.47058821
119.12388611	2.49019599
119.12802887	2.37254906
119.13206482	2.21568632
119.13636017	2.25490189
119.14063263	2.39215684
119.14063263	2.47058821
119.14445496	2.43137264
119.14856720	2.35294127
119.15269470	2.27450991
119.15269470	2.29411769
119.15672302	2.37254906
119.16090393	2.41176462
119.16490173	2.41176462
119.16490173	2.29411769
119.16902161	2.19607854
119.17314911	2.21568632
119.17718506	2.47058821
119.18135834	2.52941179
119.18546295	2.49019599
119.18546295	2.35294127
119.18949127	2.23529410
