176.04330444	2.52941179
176.04716492	2.52941179
176.05139160	2.52941179
176.05139160	2.52941179
176.05548096	2.52941179
176.05937195	2.54901958
176.06340027	2.54901958
176.06764221	2.52941179
176.06764221	2.50980401
176.07176208	2.50980401
176.07582092	2.52941179
176.07989502	2.52941179
176.07989502	2.50980401
176.08441162	2.50980401
176.08808899	2.50980401
176.09230042	2.50980401
176.09629822	2.50980401
176.09629822	2.49019599
176.10043335	2.49019599
176.10472107	2.50980401
176.10865784	2.50980401
176.10865784	2.49019599
176.11293030	2.49019599
176.11727905	2.49019599
176.12095642	2.49019599
176.12492371	2.47058821
176.12492371	2.49019599
176.12911987	2.47058821
176.13331604	2.47058821
176.13742065	2.47058821
176.13742065	2.47058821
176.14126587	2.47058821
176.14549255	2.47058821
176.14981079	2.45098042
176.15374756	2.45098042
176.15374756	2.47058821
176.15792847	2.47058821
176.16175842	2.47058821
176.16601563	2.47058821
176.16601563	2.47058821
176.17027283	2.47058821
176.17407227	2.47058821
176.17814636	2.47058821
176.18247986	2.49019599
176.18643188	2.49019599
176.19038391	2.47058821
176.19462585	2.49019599
176.19462585	2.47058821
176.19897461	2.50980401
176.20291138	2.50980401
176.20680237	2.47058821
176.21089172	2.47058821
176.21522522	2.49019599
176.21919250	2.47058821
176.22319031	2.47058821
176.22319031	2.49019599
176.22729492	2.47058821
176.23136902	2.47058821
176.23564148	2.47058821
176.23564148	2.47058821
176.23960876	2.49019599
176.24377441	2.49019599
176.24780273	2.49019599
176.25212097	2.47058821
176.25212097	2.49019599
176.25602722	2.49019599
176.26022339	2.49019599
176.26461792	2.49019599
176.26461792	2.49019599
176.26866150	2.47058821
176.27247620	2.47058821
176.27659607	2.49019599
176.28057861	2.49019599
176.28057861	2.49019599
176.28486633	2.49019599
176.28881836	2.47058821
176.29315186	2.50980401
176.29315186	2.50980401
176.29708862	2.50980401
176.30120850	2.50980401
176.30516052	2.49019599
176.30926514	2.50980401
176.30926514	2.47058821
176.31341553	2.47058821
176.31758118	2.47058821
176.32170105	2.47058821
176.32170105	2.47058821
176.32563782	2.45098042
176.32992554	2.45098042
176.33416748	2.47058821
176.33799744	2.47058821
176.33799744	2.47058821
176.34197998	2.45098042
176.34629822	2.47058821
176.35032654	2.47058821
176.35032654	2.47058821
176.35433960	2.47058821
176.35839844	2.47058821
176.36250305	2.49019599
176.36709595	2.49019599
176.36709595	2.47058821
176.37075806	2.47058821
176.37478638	2.47058821
176.37889099	2.47058821
176.37889099	2.49019599
176.38316345	2.49019599
176.38706970	2.49019599
176.39137268	2.49019599
176.39546204	2.50980401
176.39945984	2.50980401
176.40357971	2.50980401
176.40780640	2.50980401
176.40780640	2.49019599
176.41166687	2.49019599
176.41586304	2.50980401
176.41990662	2.50980401
176.42401123	2.50980401
176.42810059	2.49019599
176.43266296	2.49019599
176.43624878	2.50980401
176.43624878	2.50980401
176.44032288	2.52941179
176.44451904	2.50980401
176.44889832	2.50980401
176.44889832	2.49019599
176.45300293	2.50980401
176.45692444	2.52941179
176.46096802	2.52941179
176.46531677	2.52941179
176.46531677	2.50980401
176.46929932	2.50980401
176.47323608	2.50980401
176.47747803	2.50980401
176.47747803	2.54901958
176.48149109	2.52941179
176.48550415	2.52941179
176.48948669	2.52941179
176.49365234	2.52941179
176.49365234	2.54901958
176.49766541	2.54901958
176.50193787	2.54901958
176.50595093	2.54901958
176.50595093	2.54901958
176.51008606	2.58823538
176.51403809	2.62745094
176.51826477	2.60784316
176.52261353	2.64705873
176.52261353	2.64705873
176.52644348	2.62745094
176.53060913	2.58823538
176.53469849	2.54901958
176.53469849	2.56862736
176.53862000	2.56862736
176.54284668	2.56862736
176.54698181	2.58823538
176.55113220	2.54901958
176.55113220	2.50980401
176.55502319	2.47058821
176.55909729	2.49019599
176.56326294	2.50980401
176.56326294	2.49019599
176.56770325	2.47058821
176.57151794	2.43137264
176.57585144	2.41176462
176.57974243	2.37254906
176.58384705	2.37254906
176.58830261	2.37254906
176.59199524	2.39215684
176.59199524	2.47058821
176.59606934	2.56862736
176.60018921	2.66666675
176.60438538	2.72549009
176.60858154	2.92156863
176.61248779	3.00000000
176.61669922	2.92156863
176.62071228	2.86274505
176.62071228	2.88235283
176.62467957	2.90196085
176.62895203	2.94117641
176.63305664	2.92156863
176.63706970	3.00000000
176.64108276	3.00000000
176.64506531	2.90196085
176.64939880	2.80392146
176.64939880	2.84313726
176.65356445	2.98039222
176.65745544	3.11764717
176.66154480	3.33333325
176.66154480	3.50980401
176.66586304	3.56862736
176.66987610	3.54901958
176.67382813	3.56862736
176.67793274	3.70588231
176.67793274	3.88235283
176.68206787	3.88235283
176.68609619	3.74509811
176.69021606	3.54901958
176.69021606	3.52941179
176.69436646	3.78431368
176.69862366	3.76470590
176.70262146	3.76470590
176.70657349	3.92156863
176.70657349	3.86274505
176.71063232	3.90196085
176.71496582	3.68627453
176.71899414	3.58823538
176.71899414	3.52941179
176.72299194	3.43137264
176.72706604	3.72549009
176.73120117	3.94117641
176.73536682	4.19607830
176.73536682	4.17647076
176.73934937	4.07843161
176.74365234	3.82352948
176.74772644	3.45098042
176.74772644	3.21568632
176.75173950	3.33333325
176.75605774	3.58823538
176.75997925	3.78431368
176.76416016	3.98039222
176.76416016	3.70588231
176.76817322	3.39215684
176.77214050	3.13725495
176.77650452	3.01960778
176.77650452	2.98039222
176.78042603	3.01960778
176.78450012	2.98039222
176.78852844	2.70588231
176.79263306	2.35294127
176.79693604	1.94117641
176.80094910	1.90196073
176.80513000	1.96078432
176.80513000	2.01960778
176.80918884	1.70588231
176.81312561	1.15686274
176.81735229	1.15686274
176.82138062	1.03921568
176.82545471	1.15686274
176.82958984	1.47058821
176.83367920	1.76470590
176.83367920	1.80392158
176.83805847	1.64705884
176.84194946	1.62745094
176.84602356	1.45098042
176.84602356	1.41176474
176.85008240	1.66666663
176.85415649	2.17647052
176.85847473	2.72549009
176.86245728	2.90196085
176.86245728	2.76470590
176.86653137	2.50980401
176.87043762	2.33333325
176.87454224	2.35294127
176.87454224	2.72549009
176.87879944	2.90196085
176.88288879	2.76470590
176.88699341	2.29411769
176.89102173	1.96078432
176.89102173	2.09803915
176.89501953	2.13725495
176.89920044	2.21568632
176.90342712	2.33333325
176.90342712	2.21568632
176.90739441	1.78431368
176.91143799	1.54901958
176.91560364	1.52941179
176.91970825	1.50980389
176.91970825	1.56862748
176.92401123	1.68627453
176.92794800	1.62745094
176.93199158	1.94117641
176.93199158	2.13725495
176.93603516	2.37254906
176.94039917	2.39215684
176.94427490	2.66666675
176.94841003	2.78431368
176.94841003	2.60784316
176.95242310	2.43137264
176.95646667	2.90196085
176.96064758	2.94117641
176.96064758	3.21568632
176.96467590	3.33333325
176.96875000	3.21568632
176.97280884	3.33333325
176.97685242	3.29411769
176.98095703	2.76470590
176.98529053	2.00000000
176.98930359	1.54901958
176.98930359	1.49019611
176.99337769	1.21568632
176.99746704	0.84313726
177.00172424	0.66666669
177.00555420	0.78431374
177.00975037	0.78431374
177.01371765	1.03921568
177.01799011	1.31372547
177.01799011	1.47058821
177.02195740	1.41176474
177.02606201	1.37254906
177.03025818	1.47058821
177.03440857	2.35294127
177.03840637	2.54901958
177.04272461	2.94117641
177.04682922	3.17647052
177.04682922	3.49019599
177.05058289	3.23529410
177.05471802	2.92156863
177.05883789	2.47058821
177.05883789	1.66666663
177.06291199	1.15686274
177.06716919	1.27450979
177.07141113	1.68627453
177.07539368	2.01960778
177.07539368	2.27450991
177.07936096	2.86274505
177.08361816	3.03921580
177.08766174	2.96078420
177.08766174	2.49019599
177.09167480	2.01960778
177.09579468	1.84313726
177.09988403	1.90196073
177.10400391	2.07843137
177.10400391	2.31372547
177.10807800	2.49019599
177.11213684	2.90196085
177.11631775	3.33333325
177.11631775	3.45098042
177.12046814	3.37254906
177.12457275	3.03921580
177.12872314	2.98039222
177.13272095	3.15686274
177.13272095	3.39215684
177.13676453	3.72549009
177.14080811	3.43137264
177.14491272	3.07843137
177.14491272	2.76470590
177.14901733	2.27450991
177.15307617	1.98039210
177.15733337	1.76470590
177.16136169	1.82352936
177.16136169	2.11764717
177.16542053	2.45098042
177.16964722	2.68627453
177.17382813	2.80392146
177.17382813	2.60784316
177.17759705	2.35294127
177.18171692	2.27450991
177.18586731	2.21568632
177.18994141	2.66666675
177.19404602	3.39215684
177.19830322	3.35294127
177.20233154	3.15686274
177.20233154	3.11764717
177.20654297	2.96078420
177.21044922	2.64705873
177.21449280	2.60784316
177.21864319	2.60784316
177.22305298	2.50980401
177.22683716	2.45098042
177.23097229	2.13725495
177.23097229	1.96078432
177.23509216	1.54901958
177.23912048	1.60784316
177.24324036	1.82352936
177.24731445	2.33333325
177.25148010	2.70588231
177.25546265	2.92156863
177.25958252	3.03921580
177.25958252	3.19607854
177.26380920	2.94117641
177.26792908	2.66666675
177.27195740	2.58823538
177.27195740	2.62745094
177.27609253	2.60784316
177.28004456	2.66666675
177.28417969	2.84313726
177.28825378	2.98039222
177.28825378	2.76470590
177.29237366	2.88235283
177.29646301	2.84313726
177.30067444	2.68627453
177.30067444	2.41176462
177.30467224	2.29411769
177.30877686	1.94117641
177.31285095	1.78431368
177.31701660	1.86274505
177.31701660	1.70588231
177.32104492	2.03921580
177.32525635	2.39215684
177.32922363	2.35294127
177.32922363	2.31372547
177.33370972	2.05882359
177.33750916	1.84313726
177.34152222	1.92156863
177.34565735	1.68627453
177.34565735	1.68627453
177.34974670	1.76470590
177.35383606	1.82352936
177.35794067	1.90196073
177.35794067	2.01960778
177.36199951	2.19607854
177.36616516	2.19607854
177.37020874	2.29411769
177.37431335	2.72549009
177.37834167	2.70588231
177.38265991	2.80392146
177.38676453	3.05882359
177.38676453	3.19607854
177.39080811	2.86274505
177.39491272	2.54901958
177.39944458	2.37254906
177.40303040	1.80392158
177.40701294	1.90196073
177.41133118	2.01960778
177.41528320	2.05882359
177.41528320	2.01960778
177.41937256	1.92156863
177.42346191	2.00000000
177.42756653	2.05882359
177.43182373	1.88235295
177.43586731	1.78431368
177.43978882	1.84313726
177.44395447	2.15686274
177.44395447	2.52941179
177.44813538	2.49019599
177.45233154	2.35294127
177.45645142	2.17647052
177.45645142	2.03921580
177.46028137	2.11764717
177.46458435	2.17647052
177.46870422	2.11764717
177.47264099	2.13725495
177.47264099	2.19607854
177.47674561	2.33333325
177.48080444	2.50980401
177.48503113	2.60784316
177.48503113	2.62745094
177.48939514	2.66666675
177.49310303	2.50980401
177.49719238	2.49019599
177.50143433	2.52941179
177.50143433	2.72549009
177.50541687	2.62745094
177.50953674	2.50980401
177.51368713	2.60784316
177.51368713	2.62745094
177.51774597	2.50980401
177.52201843	2.41176462
177.52603149	2.35294127
177.53005981	2.33333325
177.53005981	2.60784316
177.53411865	2.60784316
177.53829956	2.60784316
177.54244995	2.74509811
177.54244995	2.76470590
177.54632568	2.62745094
177.55064392	2.43137264
177.55453491	2.39215684
177.55865479	2.41176462
177.55865479	2.39215684
177.56318665	2.45098042
177.56758118	2.56862736
177.57127380	2.68627453
177.57127380	2.66666675
177.57536316	2.50980401
177.57940674	2.39215684
177.58354187	2.33333325
177.58766174	2.60784316
177.59176636	2.64705873
177.59579468	2.60784316
177.60008240	2.78431368
177.60008240	2.50980401
177.60456848	2.50980401
177.60791016	2.64705873
177.61190796	2.39215684
177.61643982	2.64705873
177.62033081	2.50980401
177.62437439	2.39215684
177.62875366	2.37254906
177.62875366	2.39215684
177.63368225	2.29411769
177.63745117	2.29411769
177.64070129	2.49019599
177.64479065	2.90196085
177.64895630	2.94117641
177.65296936	2.80392146
177.65716553	2.70588231
177.65716553	2.45098042
177.66113281	2.31372547
177.66595459	2.74509811
177.66955566	2.94117641
177.66955566	2.86274505
177.67364502	2.70588231
177.67745972	2.56862736
177.68164063	2.37254906
177.68585205	2.33333325
177.68585205	2.33333325
177.68989563	2.37254906
177.69398499	2.41176462
177.69822693	2.33333325
177.69822693	2.35294127
177.70225525	2.50980401
177.70622253	2.60784316
177.71040344	2.52941179
177.71440125	2.41176462
177.71440125	2.54901958
177.71846008	2.52941179
177.72261047	2.52941179
177.72685242	2.64705873
177.72685242	2.72549009
177.73121643	2.72549009
177.73497009	2.66666675
177.73907471	2.68627453
177.74302673	2.84313726
177.74302673	2.76470590
177.74745178	2.56862736
177.75152588	2.45098042
177.75526428	2.31372547
177.75526428	2.27450991
177.75942993	2.49019599
177.76347351	2.50980401
177.76756287	2.50980401
177.77163696	2.76470590
177.77163696	3.00000000
177.77586365	2.88235283
177.77987671	2.82352948
177.78395081	2.56862736
177.78395081	2.31372547
177.78800964	2.13725495
177.79216003	1.94117641
177.79649353	1.92156863
177.80043030	2.35294127
177.80468750	2.45098042
177.80873108	2.49019599
177.81285095	2.66666675
177.81285095	2.72549009
177.81687927	2.62745094
177.82084656	2.70588231
177.82498169	2.74509811
177.82907104	2.54901958
177.83319092	2.56862736
177.83715820	2.45098042
177.84141541	2.33333325
177.84141541	2.43137264
177.84553528	2.41176462
177.84956360	2.15686274
177.85357666	2.07843137
177.85357666	2.29411769
177.85774231	2.49019599
177.86183167	2.37254906
177.86593628	2.39215684
177.86999512	2.29411769
177.86999512	2.27450991
177.87419128	2.39215684
177.87820435	2.39215684
177.88227844	2.37254906
177.88227844	2.37254906
177.88647461	2.54901958
177.89048767	2.60784316
177.89451599	2.33333325
177.89874268	2.13725495
177.89874268	2.09803915
177.90280151	2.15686274
177.90675354	2.15686274
177.91101074	2.07843137
177.91101074	2.19607854
177.91517639	2.19607854
177.91912842	2.05882359
177.92335510	2.05882359
177.92756653	2.13725495
177.92756653	2.23529410
177.93194580	2.21568632
177.93568420	2.13725495
177.93983459	2.23529410
177.93983459	2.27450991
177.94364929	2.31372547
177.94776917	2.29411769
177.95204163	2.19607854
177.95606995	2.27450991
177.95606995	2.37254906
177.96002197	2.35294127
177.96420288	2.39215684
177.96858215	2.47058821
177.96858215	2.49019599
177.97238159	2.45098042
177.97645569	2.45098042
177.98062134	2.43137264
177.98478699	2.43137264
177.98875427	2.43137264
177.99298096	2.37254906
177.99693298	2.41176462
177.99693298	2.58823538
178.00108337	2.60784316
178.00518799	2.62745094
178.01002502	2.52941179
178.01350403	2.25490189
178.01742554	2.23529410
178.02148438	2.23529410
178.02574158	2.23529410
178.02574158	2.21568632
178.02976990	2.19607854
178.03388977	2.17647052
178.03804016	2.13725495
178.04237366	2.35294127
178.04609680	2.41176462
178.05026245	2.45098042
178.05445862	2.29411769
178.05445862	2.19607854
178.05838013	2.19607854
178.06246948	2.23529410
178.06660461	2.19607854
178.06660461	2.17647052
178.07067871	2.13725495
178.07482910	2.13725495
178.07887268	2.11764717
178.08293152	2.09803915
178.08293152	2.07843137
178.08718872	2.03921580
178.09114075	2.01960778
178.09530640	2.00000000
178.09530640	2.01960778
178.09938049	2.01960778
178.10345459	1.98039210
178.10754395	1.96078432
178.11166382	1.96078432
178.11166382	1.96078432
178.11625671	1.98039210
178.11984253	1.98039210
178.12394714	1.98039210
178.12394714	2.00000000
178.12797546	2.01960778
178.13265991	2.01960778
178.13636780	2.03921580
178.14035034	2.01960778
178.14035034	2.05882359
178.14440918	2.09803915
178.14877319	2.11764717
178.15264893	2.11764717
178.15264893	2.15686274
178.15698242	2.17647052
178.16151428	2.19607854
178.16578674	2.21568632
178.16940308	2.25490189
178.16940308	2.25490189
178.17335510	2.29411769
178.17742920	2.33333325
178.18132019	2.35294127
178.18132019	2.37254906
178.18539429	2.41176462
178.18962097	2.43137264
178.19371033	2.47058821
178.19770813	2.52941179
178.20184326	2.56862736
178.20593262	2.58823538
178.21008301	2.58823538
178.21008301	2.58823538
178.21446228	2.58823538
178.21830750	2.60784316
178.22245789	2.60784316
178.22639465	2.58823538
178.23066711	2.56862736
178.23460388	2.56862736
178.23912048	2.52941179
178.23912048	2.52941179
178.24284363	2.49019599
178.24693298	2.49019599
178.25097656	2.50980401
178.25503540	2.50980401
178.25921631	2.50980401
178.26321411	2.49019599
178.26756287	2.49019599
178.26756287	2.50980401
178.27186584	2.52941179
178.27558899	2.54901958
178.27966309	2.54901958
178.27966309	2.54901958
178.28369141	2.56862736
178.28785706	2.58823538
178.29191589	2.56862736
178.29609680	2.62745094
178.29609680	2.64705873
178.30015564	2.68627453
178.30462646	2.72549009
178.30842590	2.70588231
178.30842590	2.70588231
178.31254578	2.72549009
178.31661987	2.72549009
178.32070923	2.72549009
178.32470703	2.72549009
178.32470703	2.70588231
178.32891846	2.68627453
178.33287048	2.68627453
178.33692932	2.66666675
178.33692932	2.64705873
178.34101868	2.62745094
178.34507751	2.60784316
178.34925842	2.56862736
178.35333252	2.50980401
178.35333252	2.49019599
178.35745239	2.45098042
178.36151123	2.43137264
178.36566162	2.39215684
178.36566162	2.35294127
178.36973572	2.35294127
178.37385559	2.33333325
178.37802124	2.31372547
178.38209534	2.37254906
178.38615417	2.37254906
178.39031982	2.39215684
178.39465332	2.39215684
178.39465332	2.41176462
178.39837646	2.41176462
178.40255737	2.41176462
178.40661621	2.41176462
178.41065979	2.45098042
178.41490173	2.47058821
178.41900635	2.49019599
178.42320251	2.49019599
178.42320251	2.49019599
178.42709351	2.49019599
178.43139648	2.50980401
178.43533325	2.52941179
178.43972778	2.52941179
178.44358826	2.52941179
178.44757080	2.49019599
178.45166016	2.47058821
178.45166016	2.47058821
178.45585632	2.47058821
178.45993042	2.49019599
178.46397400	2.49019599
178.46397400	2.49019599
178.46801758	2.47058821
178.47212219	2.47058821
178.47631836	2.47058821
178.48060608	2.47058821
178.48060608	2.45098042
178.48445129	2.43137264
178.48855591	2.41176462
178.49266052	2.39215684
178.49266052	2.39215684
178.49681091	2.41176462
178.50088501	2.41176462
178.50502014	2.41176462
178.50895691	2.41176462
178.50895691	2.41176462
178.51325989	2.45098042
178.51725769	2.43137264
178.52145386	2.45098042
178.52145386	2.45098042
178.52542114	2.45098042
178.52964783	2.45098042
178.53361511	2.45098042
178.53768921	2.45098042
178.53768921	2.47058821
178.54176331	2.45098042
178.54618835	2.45098042
178.55003357	2.45098042
178.55003357	2.45098042
178.55422974	2.45098042
178.55831909	2.45098042
178.56265259	2.45098042
178.56657410	2.47058821
178.56657410	2.47058821
178.57052612	2.47058821
178.57476807	2.49019599
178.57868958	2.47058821
178.57868958	2.47058821
178.58293152	2.45098042
178.58697510	2.47058821
178.59123230	2.45098042
178.59501648	2.47058821
178.59924316	2.47058821
178.60319519	2.47058821
178.60736084	2.45098042
178.60736084	2.43137264
178.61141968	2.41176462
178.61561584	2.41176462
178.61975098	2.43137264
178.62385559	2.41176462
178.62805176	2.43137264
178.63189697	2.45098042
178.63604736	2.45098042
178.63604736	2.45098042
178.64009094	2.45098042
178.64430237	2.45098042
178.64823914	2.45098042
178.65243530	2.43137264
178.65652466	2.43137264
178.66059875	2.41176462
178.66468811	2.37254906
178.66468811	2.43137264
178.66885376	2.43137264
178.67282104	2.45098042
178.67695618	2.49019599
178.67695618	2.49019599
178.68103027	2.50980401
178.68519592	2.50980401
178.68922424	2.50980401
178.69351196	2.49019599
178.69351196	2.49019599
178.69761658	2.50980401
178.70155334	2.50980401
178.70559692	2.52941179
178.70559692	2.52941179
178.70991516	2.52941179
178.71401978	2.52941179
178.71797180	2.50980401
178.72203064	2.52941179
178.72203064	2.49019599
178.72607422	2.50980401
178.73027039	2.49019599
178.73435974	2.49019599
178.73435974	2.47058821
178.73835754	2.47058821
178.74252319	2.49019599
178.74658203	2.49019599
178.75091553	2.45098042
178.75091553	2.43137264
178.75473022	2.45098042
178.75885010	2.43137264
178.76298523	2.45098042
178.76298523	2.47058821
178.76707458	2.47058821
178.77108765	2.47058821
178.77534485	2.47058821
178.77938843	2.47058821
178.77938843	2.49019599
178.78343201	2.47058821
178.78752136	2.47058821
178.79176331	2.45098042
178.79176331	2.43137264
178.79576111	2.43137264
178.80006409	2.47058821
178.80397034	2.49019599
178.80818176	2.49019599
178.81211853	2.49019599
178.81652832	2.49019599
178.82034302	2.50980401
178.82034302	2.50980401
178.82446289	2.49019599
178.82849121	2.47058821
178.83256531	2.43137264
178.83677673	2.47058821
178.84083557	2.49019599
178.84500122	2.49019599
178.84904480	2.50980401
178.84904480	2.49019599
178.85330200	2.47058821
178.85716248	2.49019599
178.86128235	2.50980401
178.86128235	2.50980401
178.86587524	2.45098042
178.86990356	2.45098042
178.87361145	2.49019599
178.87762451	2.50980401
178.87762451	2.52941179
178.88204956	2.52941179
178.88591003	2.52941179
178.88998413	2.50980401
178.88998413	2.50980401
178.89396667	2.49019599
178.89833069	2.50980401
178.90234375	2.49019599
178.90635681	2.49019599
178.90635681	2.49019599
178.91036987	2.47058821
178.91452026	2.45098042
178.91868591	2.45098042
178.91868591	2.47058821
178.92277527	2.47058821
178.92681885	2.47058821
178.93090820	2.47058821
178.93511963	2.45098042
178.93511963	2.47058821
178.93910217	2.47058821
178.94317627	2.47058821
178.94728088	2.49019599
178.94728088	2.45098042
178.95146179	2.45098042
178.95545959	2.43137264
178.95957947	2.45098042
178.96392822	2.45098042
178.96392822	2.47058821
178.96783447	2.45098042
178.97186279	2.43137264
178.97592163	2.43137264
178.97592163	2.47058821
178.98007202	2.50980401
178.98420715	2.49019599
178.98852539	2.50980401
178.99263000	2.47058821
178.99263000	2.47058821
178.99697876	2.49019599
179.00065613	2.50980401
179.00460815	2.52941179
179.00460815	2.50980401
179.00880432	2.50980401
179.01287842	2.49019599
179.01716614	2.49019599
179.02104187	2.52941179
179.02516174	2.50980401
179.02926636	2.47058821
179.03337097	2.49019599
179.03337097	2.47058821
179.03736877	2.47058821
179.04151917	2.47058821
179.04562378	2.49019599
179.04985046	2.47058821
179.05380249	2.49019599
179.05812073	2.49019599
179.06202698	2.50980401
179.06202698	2.52941179
179.06632996	2.50980401
179.07038879	2.49019599
179.07444763	2.49019599
179.07444763	2.49019599
179.07861328	2.49019599
179.08247375	2.47058821
179.08688354	2.50980401
179.09106445	2.52941179
179.09106445	2.52941179
179.09504700	2.54901958
179.09883118	2.54901958
179.10304260	2.52941179
179.10304260	2.52941179
179.10705566	2.50980401
179.11114502	2.49019599
179.11557007	2.50980401
179.11935425	2.50980401
179.11935425	2.50980401
179.12341309	2.50980401
179.12747192	2.49019599
179.13192749	2.47058821
179.13192749	2.47058821
179.13580322	2.49019599
179.13980103	2.49019599
179.14387512	2.47058821
179.14834595	2.43137264
179.14834595	2.43137264
179.15220642	2.43137264
179.15628052	2.45098042
179.16035461	2.47058821
179.16035461	2.47058821
179.16459656	2.47058821
179.16865540	2.49019599
179.17259216	2.49019599
179.17677307	2.47058821
179.17677307	2.47058821
179.18078613	2.47058821
179.18501282	2.47058821
179.18899536	2.50980401
179.18899536	2.50980401
179.19302368	2.52941179
179.19714355	2.52941179
179.20135498	2.50980401
179.20539856	2.52941179
179.20947266	2.50980401
179.21366882	2.52941179
179.21791077	2.50980401
179.21791077	2.50980401
179.22190857	2.54901958
179.22586060	2.54901958
179.22988892	2.52941179
179.23410034	2.50980401
179.23814392	2.50980401
179.24224854	2.50980401
179.24630737	2.50980401
179.24630737	2.50980401
179.25051880	2.50980401
179.25468445	2.50980401
179.25872803	2.49019599
179.26287842	2.49019599
179.26701355	2.49019599
179.27111816	2.49019599
179.27514648	2.50980401
179.27514648	2.50980401
179.27917480	2.50980401
179.28324890	2.47058821
179.28746033	2.49019599
179.28746033	2.50980401
179.29139709	2.52941179
179.29551697	2.56862736
179.30004883	2.56862736
179.30380249	2.56862736
179.30380249	2.52941179
179.31060791	2.54901958
179.31187439	2.54901958
179.31605530	2.58823538
179.31605530	2.60784316
179.32008362	2.60784316
179.32427979	2.58823538
179.32835388	2.56862736
179.33241272	2.54901958
179.33241272	2.54901958
179.33665466	2.54901958
179.34053040	2.56862736
179.34489441	2.54901958
179.34489441	2.54901958
179.34899902	2.54901958
179.35278320	2.52941179
179.35722351	2.54901958
179.36105347	2.56862736
179.36105347	2.54901958
179.36569214	2.54901958
179.36938477	2.52941179
179.37333679	2.52941179
179.37333679	2.50980401
179.37734985	2.56862736
179.38182068	2.58823538
179.38584900	2.60784316
179.38984680	2.60784316
179.38984680	2.60784316
179.39396667	2.62745094
179.39826965	2.62745094
179.40202332	2.60784316
179.40202332	2.58823538
179.40611267	2.58823538
179.41033936	2.58823538
179.41450500	2.56862736
179.41886902	2.54901958
179.42245483	2.52941179
179.42657471	2.54901958
179.43067932	2.54901958
179.43067932	2.54901958
179.43495178	2.54901958
179.43884277	2.56862736
179.44291687	2.54901958
179.44729614	2.50980401
179.45124817	2.52941179
179.45541382	2.54901958
179.45968628	2.56862736
179.45968628	2.56862736
179.46395874	2.58823538
179.46765137	2.58823538
179.47193909	2.56862736
179.47193909	2.56862736
179.47605896	2.56862736
179.48004150	2.52941179
179.48431396	2.54901958
179.48803711	2.56862736
179.48803711	2.56862736
179.49208069	2.58823538
179.49745178	2.58823538
179.50041199	2.60784316
179.50041199	2.58823538
179.50436401	2.56862736
179.50851440	2.54901958
179.51298523	2.52941179
179.51734924	2.54901958
179.51734924	2.54901958
179.52101135	2.52941179
179.52539063	2.49019599
179.52940369	2.49019599
179.52940369	2.47058821
179.53320313	2.47058821
179.53718567	2.47058821
179.54151917	2.47058821
179.54586792	2.47058821
179.54586792	2.47058821
179.54985046	2.45098042
179.55368042	2.45098042
179.55770874	2.45098042
179.55770874	2.45098042
179.56175232	2.49019599
179.56604004	2.47058821
179.56996155	2.47058821
179.57414246	2.47058821
179.57414246	2.52941179
179.57823181	2.52941179
179.58229065	2.52941179
179.58638000	2.52941179
179.58638000	2.50980401
179.59072876	2.52941179
179.59463501	2.52941179
179.59875488	2.52941179
179.60273743	2.52941179
179.60716248	2.50980401
179.61100769	2.49019599
179.61537170	2.50980401
179.61537170	2.50980401
179.61917114	2.49019599
179.62327576	2.50980401
179.62753296	2.50980401
179.63160706	2.50980401
179.63558960	2.52941179
179.63970947	2.50980401
179.64384460	2.49019599
179.64384460	2.49019599
179.64840698	2.50980401
179.65180969	2.50980401
179.65606689	2.50980401
179.65606689	2.49019599
179.66014099	2.49019599
179.66416931	2.49019599
179.66825867	2.47058821
179.67266846	2.47058821
179.67266846	2.47058821
179.67640686	2.47058821
179.68049622	2.47058821
179.68486023	2.49019599
179.68486023	2.47058821
179.68881226	2.47058821
179.69300842	2.49019599
179.69711304	2.52941179
179.70114136	2.54901958
179.70114136	2.54901958
179.70523071	2.56862736
179.70938110	2.56862736
179.71337891	2.54901958
179.71337891	2.54901958
179.71765137	2.58823538
179.72157288	2.58823538
179.72555542	2.56862736
179.72976685	2.60784316
179.72976685	2.60784316
179.73391724	2.60784316
179.73788452	2.56862736
179.74201965	2.54901958
179.74201965	2.56862736
179.74606323	2.56862736
179.75054932	2.56862736
179.75439453	2.58823538
179.75866699	2.54901958
179.75866699	2.54901958
179.76261902	2.52941179
179.76692200	2.50980401
179.77066040	2.49019599
179.77066040	2.47058821
179.77534485	2.49019599
179.77886963	2.49019599
179.78309631	2.47058821
179.78701782	2.43137264
179.79116821	2.41176462
179.79548645	2.41176462
179.79940796	2.43137264
179.79940796	2.45098042
179.80348206	2.45098042
179.80775452	2.47058821
179.81164551	2.45098042
179.81594849	2.47058821
179.81996155	2.47058821
179.82406616	2.47058821
179.82843018	2.49019599
179.82843018	2.49019599
179.83215332	2.50980401
179.83613586	2.52941179
179.84069824	2.54901958
179.84466553	2.54901958
179.84848022	2.54901958
179.85258484	2.52941179
179.85711670	2.50980401
179.85711670	2.49019599
179.86076355	2.49019599
179.86477661	2.50980401
179.86911011	2.49019599
179.86911011	2.45098042
179.87309265	2.47058821
179.87721252	2.45098042
179.88163757	2.47058821
179.88568115	2.45098042
179.88568115	2.43137264
179.88954163	2.41176462
179.89352417	2.43137264
179.89782715	2.43137264
179.89782715	2.43137264
179.90196228	2.43137264
179.90599060	2.43137264
179.90995789	2.43137264
179.91416931	2.43137264
179.91416931	2.45098042
179.91822815	2.45098042
179.92228699	2.45098042
179.92634583	2.47058821
179.92634583	2.47058821
179.93046570	2.49019599
179.93472290	2.50980401
179.93858337	2.50980401
179.94271851	2.50980401
179.94271851	2.52941179
179.94679260	2.54901958
179.95098877	2.52941179
179.95509338	2.54901958
179.95509338	2.54901958
179.95918274	2.54901958
179.96316528	2.56862736
179.96734619	2.56862736
179.97157288	2.54901958
179.97157288	2.56862736
179.97544861	2.56862736
179.98020935	2.56862736
179.98384094	2.58823538
179.98384094	2.62745094
179.98777771	2.64705873
179.99186707	2.64705873
179.99595642	2.66666675
180.00030518	2.66666675
180.00427246	2.68627453
180.00833130	2.70588231
180.01296997	2.68627453
180.01296997	2.68627453
180.01715088	2.70588231
180.02055359	2.70588231
180.02474976	2.70588231
180.02883911	2.62745094
180.03298950	2.66666675
180.03710938	2.64705873
180.04127502	2.64705873
180.04127502	2.64705873
180.04516602	2.62745094
180.04930115	2.62745094
180.05332947	2.64705873
180.05741882	2.62745094
180.06150818	2.62745094
180.06620789	2.62745094
180.06974792	2.60784316
180.06974792	2.62745094
180.07389832	2.62745094
180.07789612	2.64705873
180.08206177	2.64705873
180.08206177	2.64705873
180.08636475	2.64705873
180.09020996	2.62745094
180.09442139	2.62745094
180.09840393	2.60784316
180.09840393	2.64705873
180.10247803	2.62745094
180.10691833	2.60784316
180.11064148	2.62745094
180.11064148	2.64705873
180.11512756	2.64705873
180.11882019	2.64705873
180.12310791	2.62745094
180.12724304	2.62745094
180.12724304	2.60784316
180.13165283	2.60784316
180.13543701	2.60784316
180.13969421	2.60784316
180.13969421	2.56862736
180.14367676	2.56862736
180.14758301	2.56862736
180.15173340	2.56862736
180.15588379	2.54901958
180.15588379	2.52941179
180.15975952	2.52941179
180.16384888	2.49019599
180.16816711	2.49019599
180.16816711	2.47058821
180.17216492	2.47058821
180.17620850	2.49019599
180.18029785	2.52941179
180.18458557	2.52941179
180.18458557	2.56862736
180.18850708	2.58823538
180.19256592	2.60784316
180.19677734	2.64705873
180.19677734	2.68627453
180.20091248	2.68627453
180.20486450	2.66666675
180.20893860	2.66666675
180.21356201	2.64705873
180.21734619	2.64705873
180.22158813	2.64705873
180.22564697	2.62745094
180.22564697	2.60784316
180.22947693	2.56862736
180.23362732	2.60784316
180.23765564	2.62745094
180.24179077	2.68627453
180.24581909	2.74509811
180.25009155	2.78431368
180.25407410	2.80392146
180.25407410	2.68627453
180.25814819	2.54901958
180.26240540	2.47058821
180.26667786	2.41176462
180.26667786	2.41176462
180.27055359	2.49019599
180.27482605	2.60784316
180.27885437	2.70588231
180.28282166	2.76470590
180.28282166	2.78431368
180.28698730	2.86274505
180.29086304	2.94117641
180.29507446	3.05882359
180.29507446	3.25490189
180.29946899	3.49019599
180.30320740	3.54901958
180.30729675	3.47058821
180.31140137	3.31372547
180.31140137	3.03921580
180.31549072	3.01960778
180.31977844	3.03921580
180.32380676	3.07843137
180.32380676	3.01960778
180.32792664	2.98039222
180.33213806	2.88235283
180.33621216	2.86274505
180.34013367	2.96078420
180.34013367	3.23529410
180.34425354	3.56862736
180.34826660	3.90196085
180.35240173	4.11764717
180.35240173	3.94117641
180.35650635	3.60784316
180.36054993	3.21568632
180.36480713	2.80392146
180.36888123	2.62745094
180.36888123	2.58823538
180.37283325	2.64705873
180.37692261	2.84313726
180.38113403	3.00000000
180.38113403	3.05882359
180.38522339	3.01960778
180.38937378	2.88235283
180.39332581	2.76470590
180.39736938	2.88235283
180.40171814	3.07843137
180.40559387	3.13725495
180.40982056	3.13725495
180.40982056	3.07843137
180.41381836	2.88235283
180.41801453	2.72549009
180.42213440	2.68627453
180.42610168	2.90196085
180.43019104	2.82352948
180.43437195	2.58823538
180.43843079	2.39215684
180.43843079	2.15686274
180.44247437	2.00000000
180.44680786	1.82352936
180.45075989	1.80392158
180.45484924	1.78431368
180.45919800	1.82352936
180.46292114	1.96078432
180.46714783	2.15686274
180.46714783	2.31372547
180.47106934	2.27450991
180.47514343	2.31372547
180.47970581	2.58823538
180.47970581	2.72549009
180.48355103	2.68627453
180.48751831	2.49019599
180.49162292	2.15686274
180.49606323	1.98039210
180.49606323	2.01960778
180.50028992	2.17647052
180.50386047	2.35294127
180.50810242	2.47058821
180.50810242	2.52941179
180.51220703	2.39215684
180.51631165	2.43137264
180.52038574	2.54901958
180.52467346	2.66666675
180.52467346	2.98039222
180.52856445	3.13725495
180.53285217	3.07843137
180.53672791	2.88235283
180.53672791	2.31372547
180.54072571	2.05882359
180.54501343	2.03921580
180.54919434	2.13725495
180.55314636	2.25490189
180.55314636	2.39215684
180.55712891	2.45098042
180.56127930	2.31372547
180.56571960	2.13725495
180.56571960	2.07843137
180.56942749	2.09803915
180.57356262	2.00000000
180.57783508	2.05882359
180.58183289	2.11764717
180.58183289	2.15686274
180.58583069	2.27450991
180.59007263	2.47058821
180.59410095	2.52941179
180.59410095	2.47058821
180.59823608	2.47058821
180.60226440	2.47058821
180.60653687	2.54901958
180.61051941	2.50980401
180.61473083	2.47058821
180.61871338	2.39215684
180.62277222	2.29411769
180.62277222	2.37254906
180.62678528	2.41176462
180.63117981	2.43137264
180.63519287	2.43137264
180.63914490	2.21568632
180.64328003	2.13725495
180.64732361	2.19607854
180.65155029	2.31372547
180.65155029	2.41176462
180.65554810	2.37254906
180.65956116	2.41176462
180.66369629	2.37254906
180.66806030	2.00000000
180.67184448	2.03921580
180.67594910	2.17647052
180.68005371	2.21568632
180.68005371	2.17647052
180.68418884	2.19607854
180.68833923	2.19607854
180.69258118	2.23529410
180.69258118	2.27450991
180.69651794	2.27450991
180.70066833	2.23529410
180.70484924	2.21568632
180.70910645	2.15686274
180.70910645	2.17647052
180.71276855	2.23529410
180.71694946	2.35294127
180.72099304	2.64705873
180.72099304	2.66666675
180.72523499	2.60784316
180.72924805	2.50980401
180.73336792	2.35294127
180.73741150	2.31372547
180.73741150	2.37254906
180.74150085	2.37254906
180.74565125	2.39215684
180.75009155	2.56862736
180.75009155	2.64705873
180.75381470	2.78431368
180.75793457	2.68627453
180.76202393	2.58823538
180.76620483	2.54901958
180.76620483	2.31372547
180.77041626	2.13725495
180.77433777	2.13725495
180.77851868	2.27450991
180.77851868	2.41176462
180.78256226	2.43137264
180.78651428	2.45098042
180.79072571	2.45098042
180.79478455	2.41176462
180.79478455	2.23529410
180.79924011	2.09803915
180.80293274	2.13725495
180.80705261	2.15686274
180.80705261	2.07843137
180.81114197	2.23529410
180.81538391	2.41176462
180.81936646	2.66666675
180.82351685	2.62745094
180.82756042	2.49019599
180.83174133	2.33333325
180.83581543	2.35294127
180.83581543	2.50980401
180.83981323	2.35294127
180.84394836	2.31372547
180.84809875	2.49019599
180.85240173	2.39215684
180.85629272	2.17647052
180.86029053	2.15686274
180.86466980	2.19607854
180.86466980	2.23529410
180.86862183	2.23529410
180.87260437	2.27450991
180.87680054	2.39215684
180.88087463	2.52941179
180.88494873	2.50980401
180.88905334	2.52941179
180.89306641	2.56862736
180.89306641	2.64705873
180.89715576	2.68627453
180.90155029	2.66666675
180.90539551	2.43137264
180.90539551	2.19607854
180.90956116	2.17647052
180.91363525	2.25490189
180.91793823	2.39215684
180.92178345	2.45098042
180.92178345	2.35294127
180.92584229	2.37254906
180.92990112	2.39215684
180.93421936	2.43137264
180.93421936	2.49019599
180.93811035	2.47058821
180.94216919	2.37254906
180.94631958	2.33333325
180.95053101	2.41176462
180.95053101	2.52941179
180.95449829	2.64705873
180.95858765	2.66666675
180.96296692	2.52941179
180.96296692	2.41176462
180.96690369	2.35294127
180.97093201	2.37254906
180.97491455	2.29411769
180.97908020	2.27450991
180.97908020	2.41176462
180.98335266	2.47058821
180.98728943	2.56862736
180.99140930	2.52941179
180.99140930	2.45098042
180.99546814	2.41176462
180.99969482	2.50980401
181.00361633	2.54901958
181.00778198	2.60784316
181.00778198	2.66666675
181.01199341	2.82352948
181.01625061	2.78431368
181.02020264	2.47058821
181.02020264	2.33333325
181.02432251	2.41176462
181.02838135	2.47058821
181.03250122	2.39215684
181.03674316	2.49019599
181.04089355	2.56862736
181.04469299	2.52941179
181.04931641	2.37254906
181.04931641	2.25490189
181.05279541	2.35294127
181.05697632	2.47058821
181.06109619	2.62745094
181.06550598	2.86274505
181.06915283	2.72549009
181.07380676	2.70588231
181.07800293	2.62745094
181.07800293	2.56862736
181.08169556	2.58823538
181.08599854	2.68627453
181.08987427	2.96078420
181.08987427	3.15686274
181.09387207	3.01960778
181.09808350	2.72549009
181.10202026	2.52941179
181.10607910	2.41176462
181.10607910	2.29411769
181.11050415	2.21568632
181.11460876	2.33333325
181.11846924	2.56862736
181.11846924	2.58823538
181.12243652	2.33333325
181.12660217	2.05882359
181.13107300	2.05882359
181.13507080	2.11764717
181.13507080	2.29411769
181.13919067	2.41176462
181.14291382	2.68627453
181.14701843	2.94117641
181.14701843	2.88235283
181.15158081	2.74509811
181.15519714	2.62745094
181.15930176	2.60784316
181.16337585	2.68627453
181.16337585	2.72549009
181.16760254	2.84313726
181.17164612	2.68627453
181.17591858	2.39215684
181.17591858	2.25490189
181.17994690	2.21568632
181.18403625	2.31372547
181.18794250	2.45098042
181.19213867	2.50980401
181.19213867	2.60784316
181.19635010	2.47058821
181.20039368	2.41176462
181.20462036	2.49019599
181.20462036	2.41176462
181.20889282	2.25490189
181.21276855	2.19607854
181.21681213	2.23529410
181.22073364	2.60784316
181.22506714	2.84313726
181.22906494	2.78431368
181.23333740	2.64705873
181.23333740	2.66666675
181.23715210	2.43137264
181.24125671	2.25490189
181.24537659	2.27450991
181.24981689	2.58823538
181.25364685	2.70588231
181.25764465	2.66666675
181.26187134	2.58823538
181.26187134	2.50980401
181.26596069	2.54901958
181.27015686	2.70588231
181.27430725	2.74509811
181.27816772	2.62745094
181.28240967	2.25490189
181.28628540	2.07843137
181.29040527	2.25490189
181.29040527	2.50980401
181.29475403	2.68627453
181.29864502	2.50980401
181.30281067	2.39215684
181.30281067	2.49019599
181.30679321	2.31372547
181.31089783	2.13725495
181.31507874	2.31372547
181.31936646	2.78431368
181.31936646	2.82352948
181.32348633	2.70588231
181.32739258	2.60784316
181.33137512	2.54901958
181.33137512	2.37254906
181.33546448	2.31372547
181.33976746	2.49019599
181.34393311	2.35294127
181.34815979	2.54901958
181.34815979	2.90196085
181.35194397	3.27450991
181.35685730	3.07843137
181.36016846	2.80392146
181.36016846	2.62745094
181.36456299	2.35294127
181.36830139	2.21568632
181.37239075	2.13725495
181.37667847	2.13725495
181.37667847	2.27450991
181.38067627	2.43137264
181.38479614	2.45098042
181.38885498	2.33333325
181.38885498	2.25490189
181.39279175	2.21568632
181.39685059	2.39215684
181.40106201	2.80392146
181.40513611	2.96078420
181.40513611	2.94117641
181.40922546	2.80392146
181.41323853	2.62745094
181.41748047	2.29411769
181.41748047	2.09803915
181.42169189	2.13725495
181.42559814	2.43137264
181.42977905	2.50980401
181.43403625	2.33333325
181.43789673	2.64705873
181.44206238	2.92156863
181.44624329	2.60784316
181.44624329	2.29411769
181.45033264	1.98039210
181.45420837	2.15686274
181.45831299	2.50980401
181.46252441	2.43137264
181.46667480	2.41176462
181.47071838	2.27450991
181.47477722	2.27450991
181.47477722	2.23529410
181.47883606	2.23529410
181.48327637	2.25490189
181.48706055	2.50980401
181.49114990	2.21568632
181.49522400	2.29411769
181.49984741	2.45098042
181.50338745	2.37254906
181.50338745	2.39215684
181.50750732	2.58823538
181.51177979	2.72549009
181.51603699	2.54901958
181.51603699	2.29411769
181.52017212	2.05882359
181.52395630	2.01960778
181.52812195	2.07843137
181.53231812	1.96078432
181.53231812	1.82352936
181.53617859	1.68627453
181.54046631	1.74509799
181.54443359	1.78431368
181.54443359	1.98039210
181.54898071	2.17647052
181.55258179	2.43137264
181.55668640	2.66666675
181.56082153	2.37254906
181.56082153	2.23529410
181.56507874	2.17647052
181.56906128	2.41176462
181.57325745	2.62745094
181.57325745	2.66666675
181.57733154	2.56862736
181.58125305	2.35294127
181.58551025	2.19607854
181.58949280	2.09803915
181.58949280	2.07843137
181.59353638	2.27450991
181.59797668	2.58823538
181.60177612	2.60784316
181.60177612	2.60784316
181.60607910	2.35294127
181.60990906	2.15686274
181.61412048	1.98039210
181.61827087	1.80392158
181.61827087	1.84313726
181.62222290	2.00000000
181.62629700	2.13725495
181.63040161	2.09803915
181.63040161	2.25490189
181.63470459	2.37254906
181.63865662	2.45098042
181.64276123	2.62745094
181.64700317	2.96078420
181.65126038	3.07843137
181.65510559	3.17647052
181.65927124	3.07843137
181.65927124	2.98039222
181.66319275	2.94117641
181.66764832	2.78431368
181.67137146	2.72549009
181.67547607	2.66666675
181.67956543	2.50980401
181.68383789	2.41176462
181.68778992	2.31372547
181.68778992	2.29411769
181.69184875	2.43137264
181.69599915	2.54901958
181.70028687	2.62745094
181.70413208	2.49019599
181.70846558	2.47058821
181.71243286	2.47058821
181.71658325	2.37254906
181.71658325	2.27450991
181.72076416	2.31372547
181.72463989	2.37254906
181.72901917	2.52941179
181.72901917	2.54901958
181.73316956	2.66666675
181.73689270	2.78431368
181.74101257	2.78431368
181.74519348	2.66666675
181.74519348	2.41176462
181.74964905	2.33333325
181.75354004	2.41176462
181.75770569	2.45098042
181.75770569	2.50980401
181.76155090	2.49019599
181.76567078	2.49019599
181.76983643	2.43137264
181.77392578	2.31372547
181.77392578	2.23529410
181.77799988	2.23529410
181.78239441	2.25490189
181.78611755	2.25490189
181.78611755	2.31372547
181.79016113	2.29411769
181.79435730	2.33333325
181.79875183	2.47058821
181.80249023	2.60784316
181.80249023	2.58823538
181.80661011	2.43137264
181.81065369	2.47058821
181.81474304	2.62745094
181.81474304	2.78431368
181.81898499	2.94117641
181.82307434	2.94117641
181.82710266	2.80392146
181.83154297	2.68627453
181.83154297	2.82352948
181.83554077	2.80392146
181.83934021	2.62745094
181.84349060	2.47058821
181.84349060	2.43137264
181.84751892	2.54901958
181.85165405	2.56862736
181.85606384	2.58823538
181.85983276	2.54901958
181.86410522	2.45098042
181.86813354	2.33333325
181.87213135	2.27450991
181.87213135	2.25490189
181.87614441	2.27450991
181.88027954	2.25490189
181.88458252	2.23529410
181.88848877	2.03921580
181.89256287	2.05882359
181.89671326	2.19607854
181.90083313	2.33333325
181.90083313	2.43137264
181.90496826	2.52941179
181.90911865	2.58823538
181.91307068	2.62745094
181.91307068	2.68627453
181.91738892	2.72549009
181.92121887	2.76470590
181.92535400	2.78431368
181.92947388	2.82352948
181.92947388	2.80392146
181.93376160	2.82352948
181.93763733	2.78431368
181.94171143	2.76470590
181.94171143	2.76470590
181.94586182	2.70588231
181.95010376	2.64705873
181.95402527	2.58823538
181.95806885	2.52941179
181.95806885	2.47058821
181.96261597	2.45098042
181.96644592	2.47058821
181.97047424	2.47058821
181.97047424	2.43137264
181.97468567	2.50980401
181.97863770	2.49019599
181.98316956	2.43137264
181.98681641	2.43137264
181.98681641	2.39215684
181.99092102	2.39215684
181.99499512	2.41176462
181.99957275	2.37254906
181.99957275	2.35294127
182.00312805	2.35294127
182.00733948	2.39215684
182.01150513	2.39215684
182.01550293	2.45098042
182.01550293	2.50980401
182.01951599	2.58823538
182.02381897	2.64705873
182.02795410	2.60784316
182.02795410	2.50980401
182.03192139	2.43137264
182.03614807	2.39215684
182.04046631	2.39215684
182.04417419	2.43137264
182.04858398	2.45098042
182.05235291	2.45098042
182.05645752	2.47058821
182.05645752	2.49019599
182.06050110	2.50980401
182.06491089	2.52941179
182.06880188	2.58823538
182.07299805	2.64705873
182.07688904	2.66666675
182.08139038	2.56862736
182.08557129	2.52941179
182.08557129	2.52941179
182.08920288	2.54901958
182.09332275	2.58823538
182.09762573	2.58823538
182.10156250	2.66666675
182.10568237	2.68627453
182.10969543	2.58823538
182.11380005	2.52941179
182.11380005	2.49019599
182.11816406	2.47058821
182.12199402	2.45098042
182.12609863	2.43137264
182.12609863	2.39215684
182.13011169	2.39215684
182.13433838	2.39215684
182.13848877	2.41176462
182.14263916	2.35294127
182.14263916	2.25490189
182.14648438	2.21568632
182.15084839	2.19607854
182.15473938	2.15686274
182.15473938	2.13725495
182.15887451	2.17647052
182.16316223	2.19607854
182.16708374	2.25490189
182.17124939	2.27450991
182.17124939	2.25490189
182.17521667	2.29411769
182.17933655	2.33333325
182.18360901	2.35294127
182.18360901	2.37254906
182.18751526	2.37254906
182.19158936	2.35294127
182.19604492	2.35294127
182.20037842	2.33333325
182.20037842	2.33333325
182.20411682	2.35294127
182.20816040	2.33333325
182.21246338	2.29411769
182.21246338	2.27450991
182.21635437	2.29411769
182.22050476	2.35294127
182.22456360	2.35294127
182.22888184	2.33333325
182.22888184	2.31372547
182.23297119	2.29411769
182.23666382	2.29411769
182.24078369	2.31372547
182.24078369	2.33333325
182.24487305	2.37254906
182.24942017	2.43137264
182.25300598	2.47058821
182.25708008	2.54901958
182.26155090	2.50980401
182.26539612	2.50980401
182.26962280	2.52941179
182.26962280	2.52941179
182.27369690	2.54901958
182.27764893	2.56862736
182.28199768	2.56862736
182.28613281	2.54901958
182.28994751	2.54901958
182.29408264	2.52941179
182.29829407	2.54901958
182.29829407	2.52941179
182.30221558	2.52941179
182.30628967	2.52941179
182.31042480	2.54901958
182.31491089	2.52941179
182.31866455	2.49019599
182.32293701	2.47058821
182.32684326	2.41176462
182.32684326	2.39215684
182.33139038	2.41176462
182.33509827	2.41176462
182.33914185	2.39215684
182.33914185	2.39215684
182.34324646	2.39215684
182.34751892	2.37254906
182.35145569	2.37254906
182.35568237	2.37254906
182.35568237	2.33333325
182.35954285	2.35294127
182.36364746	2.33333325
182.37071228	2.31372547
182.37071228	2.31372547
182.37184143	2.31372547
182.37594604	2.33333325
182.38006592	2.33333325
182.38426208	2.33333325
182.38426208	2.33333325
182.38841248	2.37254906
182.39228821	2.41176462
182.39662170	2.41176462
182.39662170	2.43137264
182.40065002	2.45098042
182.40467834	2.43137264
182.40879822	2.41176462
182.41281128	2.45098042
182.41281128	2.47058821
182.41699219	2.49019599
182.42103577	2.52941179
182.42512512	2.52941179
182.42512512	2.54901958
182.42919922	2.54901958
182.43344116	2.52941179
182.43740845	2.49019599
182.44145203	2.50980401
182.44145203	2.52941179
182.44554138	2.49019599
182.45013428	2.43137264
182.45393372	2.43137264
182.45393372	2.43137264
182.45793152	2.41176462
182.46195984	2.41176462
182.46633911	2.39215684
182.47027588	2.41176462
182.47425842	2.43137264
182.47839355	2.41176462
182.48301697	2.43137264
182.48301697	2.43137264
182.48654175	2.45098042
182.49064636	2.45098042
182.49476624	2.45098042
182.49905396	2.49019599
182.50286865	2.54901958
182.50698853	2.54901958
182.51126099	2.54901958
182.51126099	2.49019599
182.51531982	2.47058821
182.51931763	2.47058821
182.52348328	2.49019599
182.52348328	2.50980401
182.52752686	2.50980401
182.53184509	2.49019599
182.53570557	2.49019599
182.53974915	2.47058821
182.53974915	2.50980401
182.54406738	2.52941179
182.54844666	2.50980401
182.55213928	2.50980401
182.55213928	2.50980401
182.55619812	2.52941179
182.56027222	2.56862736
182.56452942	2.60784316
182.56864929	2.58823538
182.56864929	2.56862736
182.57273865	2.54901958
182.57662964	2.54901958
182.58082581	2.56862736
182.58082581	2.58823538
182.58508301	2.62745094
182.58935547	2.64705873
182.59329224	2.66666675
182.59730530	2.62745094
182.59730530	2.58823538
182.60136414	2.58823538
182.60545349	2.58823538
182.60948181	2.60784316
182.60948181	2.60784316
182.61358643	2.62745094
182.61773682	2.62745094
182.62174988	2.60784316
182.62579346	2.56862736
182.62579346	2.58823538
182.62986755	2.58823538
182.63420105	2.58823538
182.63844299	2.58823538
182.63844299	2.60784316
182.64248657	2.58823538
182.64653015	2.58823538
182.65072632	2.54901958
182.65451050	2.50980401
182.65867615	2.49019599
182.66333008	2.47058821
182.66690063	2.49019599
182.66690063	2.52941179
182.67118835	2.52941179
182.67517090	2.54901958
182.67904663	2.52941179
182.68333435	2.49019599
182.68731689	2.49019599
182.69134521	2.49019599
182.69546509	2.47058821
182.69546509	2.49019599
182.69979858	2.50980401
182.70364380	2.50980401
182.70768738	2.47058821
182.71185303	2.45098042
182.71609497	2.43137264
182.72012329	2.43137264
182.72415161	2.43137264
182.72415161	2.41176462
182.72828674	2.41176462
182.73249817	2.41176462
182.73652649	2.39215684
182.73652649	2.37254906
182.74070740	2.41176462
182.74499512	2.41176462
182.74897766	2.39215684
182.75294495	2.39215684
182.75294495	2.41176462
182.75703430	2.41176462
182.76113892	2.41176462
182.76528931	2.41176462
182.76528931	2.43137264
182.76936340	2.45098042
182.77348328	2.45098042
182.77763367	2.50980401
182.78176880	2.54901958
182.78176880	2.54901958
182.78558350	2.54901958
182.78999329	2.54901958
182.79383850	2.50980401
182.79383850	2.47058821
182.79829407	2.47058821
182.80203247	2.49019599
182.80607605	2.50980401
182.81019592	2.52941179
182.81019592	2.52941179
182.81431580	2.52941179
182.81857300	2.52941179
182.82247925	2.52941179
182.82247925	2.50980401
182.82664490	2.49019599
182.83078003	2.50980401
182.83479309	2.54901958
182.83915710	2.54901958
182.83915710	2.54901958
182.84309387	2.52941179
182.84703064	2.52941179
182.85121155	2.52941179
182.85121155	2.52941179
182.85522461	2.56862736
182.85958862	2.54901958
182.86346436	2.54901958
182.86769104	2.54901958
182.87158203	2.56862736
182.87586975	2.54901958
182.87983704	2.54901958
182.87983704	2.52941179
182.88403320	2.54901958
182.88807678	2.56862736
182.89207458	2.50980401
182.89624023	2.52941179
182.90039063	2.50980401
182.90447998	2.50980401
182.90846252	2.52941179
182.90846252	2.49019599
182.91275024	2.47058821
182.91676331	2.49019599
182.92094421	2.50980401
182.92507935	2.47058821
182.92935181	2.49019599
182.93347168	2.50980401
182.93739319	2.49019599
182.93739319	2.47058821
182.94120789	2.49019599
182.94554138	2.52941179
182.94958496	2.52941179
182.94958496	2.49019599
182.95356750	2.47058821
182.95776367	2.49019599
182.96194458	2.52941179
182.96598816	2.52941179
182.96598816	2.50980401
182.96995544	2.45098042
182.97398376	2.45098042
182.97808838	2.50980401
182.97808838	2.54901958
182.98228455	2.58823538
182.98637390	2.56862736
182.99040222	2.52941179
182.99462891	2.50980401
182.99462891	2.52941179
182.99884033	2.52941179
183.00273132	2.56862736
183.00680542	2.54901958
183.00680542	2.50980401
183.01103210	2.52941179
183.01504517	2.54901958
183.01911926	2.54901958
183.02337646	2.54901958
183.02337646	2.52941179
183.02728271	2.52941179
183.03170776	2.49019599
183.03549194	2.49019599
183.03549194	2.47058821
183.03948975	2.43137264
183.04373169	2.43137264
183.04782104	2.45098042
183.05192566	2.45098042
183.05593872	2.45098042
183.06004333	2.47058821
183.06420898	2.49019599
183.06420898	2.50980401
183.06831360	2.49019599
183.07231140	2.47058821
183.07676697	2.47058821
183.08047485	2.50980401
183.08493042	2.50980401
183.08894348	2.52941179
183.09286499	2.50980401
183.09286499	2.49019599
183.09692383	2.49019599
183.10104370	2.50980401
183.10542297	2.49019599
183.10926819	2.45098042
183.11337280	2.43137264
183.11755371	2.43137264
183.12150574	2.43137264
183.12150574	2.43137264
183.12554932	2.45098042
183.12962341	2.45098042
183.13386536	2.45098042
183.13386536	2.45098042
183.13798523	2.45098042
183.14196777	2.45098042
183.14604187	2.45098042
183.15025330	2.45098042
183.15025330	2.43137264
183.15475464	2.47058821
183.15849304	2.49019599
183.16284180	2.50980401
183.16284180	2.47058821
183.16664124	2.47058821
183.17080688	2.47058821
183.17477417	2.49019599
183.17901611	2.49019599
183.17901611	2.50980401
183.18312073	2.52941179
183.18705750	2.52941179
183.19117737	2.50980401
183.19117737	2.47058821
183.19523621	2.45098042
183.19975281	2.43137264
183.20341492	2.47058821
183.20773315	2.50980401
183.20773315	2.49019599
183.21200562	2.45098042
183.21592712	2.49019599
183.21984863	2.47058821
183.21984863	2.43137264
183.22404480	2.41176462
183.22836304	2.41176462
183.23229980	2.43137264
183.23622131	2.43137264
183.23622131	2.43137264
183.24028015	2.45098042
183.24436951	2.43137264
183.24859619	2.43137264
183.24859619	2.39215684
183.25257874	2.37254906
183.25700378	2.37254906
183.26110840	2.39215684
183.26510620	2.39215684
183.26914978	2.39215684
183.27322388	2.37254906
183.27748108	2.35294127
183.27748108	2.37254906
183.28138733	2.35294127
183.28532410	2.35294127
183.28936768	2.37254906
183.29373169	2.39215684
183.29772949	2.39215684
183.30183411	2.37254906
183.30583191	2.33333325
183.30583191	2.33333325
183.30999756	2.33333325
183.31411743	2.33333325
183.31814575	2.33333325
183.32218933	2.35294127
183.32641602	2.33333325
183.33053589	2.31372547
183.33468628	2.33333325
183.33468628	2.33333325
183.33874512	2.33333325
183.34281921	2.35294127
183.34683228	2.37254906
183.34683228	2.39215684
183.35115051	2.37254906
183.35504150	2.37254906
183.35910034	2.37254906
183.36318970	2.37254906
183.36318970	2.39215684
183.36740112	2.37254906
183.37133789	2.39215684
183.37548828	2.39215684
183.37548828	2.35294127
183.37950134	2.37254906
183.38378906	2.39215684
183.38789368	2.37254906
183.39236450	2.37254906
183.39236450	2.41176462
183.39631653	2.45098042
183.40031433	2.43137264
183.40419006	2.43137264
183.40419006	2.47058821
183.40823364	2.47058821
183.41229248	2.43137264
183.41645813	2.41176462
183.42062378	2.39215684
183.42062378	2.43137264
183.42462158	2.47058821
183.42877197	2.45098042
183.43315125	2.41176462
183.43315125	2.41176462
183.43690491	2.45098042
183.44094849	2.47058821
183.44509888	2.47058821
183.44940186	2.43137264
183.44940186	2.39215684
183.45336914	2.39215684
183.45742798	2.41176462
183.46176147	2.43137264
183.46176147	2.41176462
183.46568298	2.41176462
183.46966553	2.43137264
183.47377014	2.45098042
183.47782898	2.47058821
183.48219299	2.47058821
183.48605347	2.45098042
183.49017334	2.43137264
183.49017334	2.39215684
183.49424744	2.41176462
183.49848938	2.43137264
183.50241089	2.45098042
183.50654602	2.43137264
183.51077271	2.41176462
183.51495361	2.41176462
183.51884460	2.43137264
183.51884460	2.45098042
183.52287292	2.45098042
183.52719116	2.47058821
183.53128052	2.45098042
183.53128052	2.43137264
183.53517151	2.45098042
183.53926086	2.45098042
183.54377747	2.45098042
183.54763794	2.43137264
183.54763794	2.43137264
183.55169678	2.43137264
183.55577087	2.45098042
183.55981445	2.45098042
183.55981445	2.45098042
183.56500244	2.47058821
183.56825256	2.45098042
183.57218933	2.43137264
183.57673645	2.43137264
183.57673645	2.45098042
183.58074951	2.47058821
183.58439636	2.45098042
183.58868408	2.45098042
183.58868408	2.43137264
183.59259033	2.43137264
183.59675598	2.43137264
183.60087585	2.43137264
183.60514832	2.43137264
183.60514832	2.41176462
183.60893250	2.39215684
183.61305237	2.41176462
183.61732483	2.41176462
183.61732483	2.41176462
183.62130737	2.43137264
183.62535095	2.41176462
183.62937927	2.43137264
183.63368225	2.41176462
183.63368225	2.43137264
183.63774109	2.45098042
183.64210510	2.45098042
183.64598083	2.45098042
183.64598083	2.45098042
183.65008545	2.45098042
183.65409851	2.47058821
183.65808105	2.47058821
183.66217041	2.49019599
183.66217041	2.50980401
183.66636658	2.50980401
183.67053223	2.50980401
183.67449951	2.49019599
183.67449951	2.49019599
183.67855835	2.47058821
183.68305969	2.47058821
183.68681335	2.45098042
183.69084167	2.47058821
183.69496155	2.45098042
183.69920349	2.45098042
183.70326233	2.45098042
183.70326233	2.45098042
183.70732117	2.45098042
183.71159363	2.43137264
183.71562195	2.43137264
183.71995544	2.45098042
183.72390747	2.45098042
183.72807312	2.45098042
183.73228455	2.45098042
183.73228455	2.43137264
183.73593140	2.45098042
183.74003601	2.43137264
183.74415588	2.43137264
183.74415588	2.43137264
183.74851990	2.43137264
183.75236511	2.43137264
183.75646973	2.43137264
183.76071167	2.41176462
183.76071167	2.41176462
183.76463318	2.43137264
183.76878357	2.41176462
183.77293396	2.39215684
183.77293396	2.39215684
183.77696228	2.39215684
183.78137207	2.39215684
183.78532410	2.39215684
183.78927612	2.35294127
183.78927612	2.33333325
183.79331970	2.35294127
183.79754639	2.35294127
183.80158997	2.37254906
183.80158997	2.37254906
183.80555725	2.35294127
183.80963135	2.37254906
183.81387329	2.39215684
183.81791687	2.41176462
183.81791687	2.45098042
183.82209778	2.43137264
183.82621765	2.47058821
183.83020020	2.45098042
183.83020020	2.47058821
183.83451843	2.43137264
183.83850098	2.49019599
183.84248352	2.50980401
183.84654236	2.50980401
183.84654236	2.52941179
183.85073853	2.50980401
183.85514832	2.47058821
183.85893250	2.49019599
183.85893250	2.54901958
183.86293030	2.52941179
183.86718750	2.52941179
183.87112427	2.54901958
183.87524414	2.54901958
183.87925720	2.52941179
183.88352966	2.54901958
183.88783264	2.54901958
183.88783264	2.50980401
183.89167786	2.47058821
183.89575195	2.50980401
183.90020752	2.56862736
183.90400696	2.52941179
183.90805054	2.49019599
183.91265869	2.49019599
183.91635132	2.50980401
183.91635132	2.54901958
183.92028809	2.54901958
183.92436218	2.50980401
183.92848206	2.47058821
183.93293762	2.56862736
183.93667603	2.58823538
183.94071960	2.60784316
183.94483948	2.58823538
183.94483948	2.60784316
183.94918823	2.60784316
183.95303345	2.62745094
183.95721436	2.64705873
183.95721436	2.62745094
183.96130371	2.64705873
183.96540833	2.64705873
183.96954346	2.62745094
183.97370911	2.62745094
183.97370911	2.62745094
183.97758484	2.66666675
183.98188782	2.68627453
183.98587036	2.70588231
183.98587036	2.72549009
183.98991394	2.72549009
183.99400330	2.78431368
183.99871826	2.80392146
184.00234985	2.82352948
184.00234985	2.80392146
184.00636292	2.80392146
184.01039124	2.80392146
184.01461792	2.82352948
184.01461792	2.86274505
184.01867676	2.86274505
184.02265930	2.80392146
184.02697754	2.80392146
184.03125000	2.76470590
184.03125000	2.74509811
184.03501892	2.76470590
184.03910828	2.72549009
184.04335022	2.74509811
184.04335022	2.80392146
184.04742432	2.78431368
184.05152893	2.74509811
184.05545044	2.76470590
184.05963135	2.82352948
184.05963135	2.86274505
184.06364441	2.90196085
184.06784058	2.84313726
184.07194519	2.78431368
184.07194519	2.78431368
184.07594299	2.82352948
184.08001709	2.84313726
184.08422852	2.88235283
184.08830261	2.90196085
184.09236145	2.90196085
184.09642029	2.94117641
184.10060120	3.01960778
184.10060120	3.09803915
184.10496521	3.29411769
184.10877991	3.54901958
184.11280823	3.66666675
184.11706543	3.72549009
184.12106323	3.72549009
184.12509155	3.74509811
184.12921143	3.70588231
184.12921143	3.68627453
184.13339233	3.68627453
184.13745117	3.66666675
184.14151001	3.60784316
184.14151001	3.50980401
184.14559937	3.37254906
184.14974976	3.33333325
184.15391541	3.27450991
184.15789795	3.19607854
184.15789795	3.13725495
184.16213989	3.27450991
184.16632080	3.21568632
184.17019653	2.96078420
184.17019653	2.50980401
184.17433167	1.98039210
184.17831421	1.60784316
184.18289185	1.58823526
184.18656921	1.74509799
184.18656921	2.00000000
184.19058228	2.13725495
184.19476318	2.23529410
184.19915771	2.41176462
184.19915771	2.62745094
184.20304871	2.52941179
184.20716858	2.52941179
184.21118164	2.78431368
184.21546936	3.03921580
184.21546936	3.05882359
184.21934509	2.88235283
184.22341919	2.64705873
184.22755432	2.39215684
184.22755432	2.35294127
184.23226929	2.37254906
184.23596191	2.45098042
184.23980713	2.47058821
184.24391174	2.25490189
184.24391174	2.05882359
184.24833679	1.74509799
184.25202942	1.43137252
184.25617981	1.31372547
184.25617981	1.37254906
184.26039124	1.72549021
184.26457214	2.23529410
184.26863098	2.68627453
184.27273560	2.35294127
184.27665710	1.64705884
184.28109741	1.05882359
184.28524780	0.88235295
184.28524780	1.07843137
184.28894043	1.39215684
184.29318237	1.66666663
184.29753113	1.94117641
184.30137634	2.37254906
184.30535889	2.31372547
184.30964661	2.58823538
184.31349182	2.68627453
184.31349182	2.88235283
184.31820679	3.09803915
184.32217407	3.33333325
184.32612610	3.23529410
184.33013916	2.50980401
184.33435059	2.54901958
184.33824158	2.56862736
184.34225464	2.45098042
184.34225464	2.17647052
184.34634399	1.62745094
184.35049438	1.43137252
184.35459900	1.43137252
184.35459900	1.45098042
184.35864258	1.78431368
184.36273193	1.94117641
184.36695862	2.11764717
184.37089539	2.27450991
184.37089539	2.31372547
184.37493896	2.33333325
184.37901306	2.49019599
184.38334656	2.52941179
184.38334656	2.62745094
184.38745117	2.58823538
184.39140320	2.66666675
184.39566040	2.68627453
184.39982605	2.47058821
184.39982605	2.25490189
184.40374756	2.07843137
184.40779114	2.00000000
184.41209412	1.98039210
184.41209412	1.94117641
184.41596985	2.13725495
184.42015076	2.29411769
184.42413330	2.37254906
184.42823792	2.27450991
184.42823792	2.19607854
184.43273926	2.05882359
184.43641663	1.96078432
184.44056702	1.74509799
184.44056702	1.60784316
184.44465637	1.62745094
184.44892883	1.72549021
184.45285034	1.78431368
184.45684814	1.86274505
184.45684814	1.84313726
184.46095276	2.07843137
184.46525574	2.31372547
184.46923828	2.54901958
184.46923828	2.66666675
184.47343445	2.56862736
184.47743225	2.84313726
184.48162842	3.01960778
184.48564148	2.58823538
184.48973083	2.21568632
184.49377441	2.05882359
184.49938965	2.09803915
184.49938965	2.05882359
184.50248718	2.05882359
184.50660706	1.94117641
184.51057434	1.98039210
184.51457214	2.21568632
184.51861572	2.23529410
184.52273560	2.37254906
184.52691650	2.45098042
184.52691650	2.50980401
184.53112793	2.33333325
184.53507996	2.13725495
184.53912354	2.13725495
184.54322815	2.31372547
184.54707336	2.49019599
184.55160522	2.50980401
184.55545044	2.60784316
184.55545044	2.74509811
184.55947876	2.58823538
184.56375122	2.50980401
184.56785583	2.43137264
184.56785583	2.41176462
184.57186890	2.43137264
184.57612610	2.17647052
184.58006287	2.13725495
184.58422852	1.84313726
184.58422852	1.58823526
184.58845520	1.62745094
184.59214783	1.72549021
184.59649658	1.94117641
184.59649658	1.90196073
184.60075378	1.98039210
184.60461426	2.15686274
184.60903931	2.31372547
184.61262512	2.41176462
184.61262512	2.60784316
184.61685181	2.70588231
184.62094116	2.66666675
184.62503052	2.90196085
184.62503052	3.29411769
184.62921143	3.56862736
184.63325500	3.39215684
184.63748169	2.98039222
184.64164734	2.70588231
184.64164734	2.29411769
184.64535522	2.13725495
184.64987183	2.00000000
184.65364075	1.96078432
184.65364075	2.07843137
184.65776062	2.19607854
184.66189575	2.00000000
184.66598511	2.00000000
184.66992188	2.15686274
184.66992188	2.33333325
184.67401123	2.60784316
184.67808533	2.64705873
184.68261719	2.56862736
184.68261719	2.56862736
184.68627930	2.52941179
184.69070435	2.56862736
184.69445801	2.82352948
184.69906616	3.17647052
184.70268250	3.13725495
184.70695496	2.86274505
184.71104431	2.68627453
184.71104431	2.49019599
184.71513367	2.35294127
184.71929932	2.21568632
184.72317505	2.31372547
184.72753906	3.27450991
184.73184204	2.96078420
184.73583984	2.64705873
184.73962402	2.47058821
184.73962402	2.25490189
184.74365234	2.21568632
184.74783325	2.15686274
184.75195313	2.19607854
184.75596619	2.41176462
184.76017761	2.45098042
184.76419067	2.58823538
184.76824951	2.76470590
184.76824951	2.60784316
184.77239990	2.50980401
184.77644348	2.64705873
184.78109741	2.80392146
184.78109741	2.80392146
184.78459167	2.80392146
184.78874207	2.76470590
184.79287720	2.84313726
184.79705811	2.66666675
184.79705811	2.49019599
184.80111694	2.70588231
184.80508423	2.96078420
184.80921936	3.03921580
184.80921936	3.23529410
184.81323242	2.98039222
184.81759644	2.52941179
184.82151794	2.29411769
184.82562256	2.03921580
184.82562256	1.76470590
184.82974243	1.74509799
184.83412170	2.11764717
184.83805847	2.29411769
184.83805847	2.41176462
184.84204102	2.29411769
184.84605408	2.41176462
184.85025024	2.60784316
184.85447693	2.45098042
184.85447693	2.35294127
184.85835266	2.37254906
184.86241150	2.41176462
184.86671448	2.37254906
184.86671448	2.21568632
184.87062073	2.17647052
184.87477112	2.13725495
184.87876892	2.41176462
184.88314819	2.60784316
184.88314819	2.84313726
184.88708496	2.90196085
184.89112854	2.90196085
184.89523315	2.66666675
184.89523315	2.82352948
184.89952087	3.29411769
184.90347290	3.11764717
184.90766907	3.11764717
184.91159058	3.07843137
184.91572571	3.00000000
184.91992188	2.64705873
184.92391968	2.37254906
184.92391968	2.21568632
184.92797852	2.00000000
184.93257141	2.05882359
184.93617249	2.05882359
184.94023132	2.00000000
184.94441223	2.17647052
184.94859314	2.29411769
184.95257568	2.64705873
184.95257568	2.66666675
184.95681763	2.80392146
184.96083069	2.78431368
184.96553040	2.68627453
184.96553040	2.49019599
184.96899414	2.62745094
184.97300720	2.72549009
184.97709656	2.82352948
184.98165894	2.90196085
184.98165894	3.01960778
184.98554993	2.94117641
184.98944092	2.72549009
184.99345398	2.45098042
184.99345398	1.96078432
184.99790955	1.88235295
185.00181580	1.98039210
185.00576782	1.90196073
185.00991821	2.03921580
185.00991821	1.90196073
185.01438904	2.09803915
185.01817322	2.29411769
185.02239990	1.90196073
185.02239990	2.05882359
185.02635193	2.39215684
185.03059387	2.58823538
185.03454590	2.86274505
185.03880310	2.86274505
185.03880310	2.92156863
185.04272461	2.80392146
185.04678345	2.68627453
185.05104065	2.84313726
185.05104065	3.01960778
185.05493164	2.98039222
185.05903625	2.82352948
185.06320190	2.60784316
185.06755066	1.92156863
185.06755066	1.41176474
185.07148743	1.43137252
185.07546997	1.98039210
185.07972717	2.39215684
185.07972717	2.43137264
185.08372498	2.41176462
185.08779907	2.01960778
185.09201050	1.98039210
185.09599304	2.66666675
185.10006714	2.66666675
185.10424805	2.50980401
185.10853577	2.41176462
185.10853577	2.27450991
185.11233521	2.23529410
185.11659241	2.23529410
185.12049866	2.33333325
185.12460327	2.92156863
185.12879944	2.84313726
185.13298035	2.52941179
185.13697815	2.49019599
185.13697815	2.92156863
185.14099121	3.11764717
185.14503479	2.86274505
185.14959717	2.76470590
185.15341187	3.05882359
185.15742493	3.17647052
185.16142273	2.41176462
185.16564941	1.80392158
185.16564941	1.76470590
185.16984558	1.74509799
185.17376709	1.94117641
185.17787170	2.27450991
185.17787170	2.50980401
185.18223572	2.90196085
185.18609619	3.19607854
185.19021606	3.07843137
185.19435120	2.64705873
185.19435120	2.64705873
185.19892883	2.84313726
185.20246887	3.01960778
185.20663452	3.01960778
185.20663452	3.01960778
185.21070862	3.09803915
185.21493530	3.27450991
185.21878052	2.98039222
185.22291565	2.50980401
185.22291565	1.98039210
185.22729492	1.60784316
185.23143005	1.54901958
185.23524475	1.70588231
185.23524475	1.92156863
185.23930359	2.05882359
185.24339294	2.19607854
185.24803162	2.49019599
185.25161743	2.78431368
185.25161743	3.03921580
185.25564575	3.45098042
185.25978088	3.54901958
185.26420593	3.54901958
185.26420593	3.27450991
185.26797485	2.37254906
185.27224731	2.27450991
185.27633667	2.47058821
185.28042603	2.50980401
185.28042603	2.88235283
185.28439331	3.00000000
185.28840637	3.00000000
185.29275513	2.49019599
185.29275513	2.09803915
185.29666138	2.19607854
185.30093384	2.17647052
185.30482483	2.15686274
185.30903625	2.23529410
185.31312561	2.21568632
185.31723022	2.39215684
185.32131958	2.84313726
185.32131958	2.98039222
185.32546997	3.13725495
185.32939148	3.17647052
185.33381653	2.70588231
185.33772278	2.23529410
185.34208679	2.27450991
185.34622192	2.25490189
185.35002136	2.25490189
185.35002136	2.27450991
185.35424805	2.43137264
185.35816956	2.33333325
185.36224365	2.05882359
185.36640930	2.29411769
185.37042236	2.25490189
185.37451172	2.07843137
185.37882996	1.80392158
185.37882996	2.00000000
185.38293457	2.09803915
185.38693237	2.35294127
185.39172363	2.25490189
185.39172363	2.35294127
185.39489746	2.56862736
185.39942932	2.64705873
185.40312195	3.03921580
185.40725708	3.86274505
185.40725708	3.80392146
185.41139221	3.15686274
185.41554260	2.45098042
185.41973877	1.88235295
185.41973877	1.60784316
185.42370605	1.29411769
185.42776489	1.35294116
185.43200684	1.37254906
185.43595886	1.54901958
185.43595886	1.58823526
185.44006348	1.50980389
185.44421387	1.50980389
185.44839478	1.80392158
185.44839478	1.98039210
185.45233154	2.15686274
185.45635986	2.37254906
185.46084595	2.45098042
185.46505737	2.39215684
185.46505737	2.43137264
185.46882629	2.37254906
185.47296143	2.25490189
185.47685242	2.37254906
185.47685242	2.54901958
185.48109436	2.64705873
185.48510742	2.60784316
185.48918152	2.68627453
185.49328613	2.82352948
185.49328613	3.00000000
185.49781799	2.64705873
185.50154114	2.33333325
185.50561523	2.07843137
185.50561523	2.03921580
185.50971985	2.05882359
185.51397705	1.84313726
185.51808167	1.86274505
185.52195740	1.96078432
185.52635193	1.90196073
185.53021240	1.76470590
185.53430176	1.76470590
185.53430176	1.86274505
185.53839111	2.00000000
185.54244995	2.29411769
185.54661560	2.64705873
185.55079651	2.70588231
185.55477905	2.62745094
185.55883789	2.66666675
185.56292725	2.68627453
185.56292725	2.52941179
185.56709290	2.43137264
185.57116699	2.45098042
185.57530212	2.52941179
185.57530212	2.58823538
185.57940674	2.70588231
185.58363342	2.88235283
185.58769226	2.64705873
185.59161377	2.31372547
185.59161377	2.09803915
185.59570313	2.13725495
185.59980774	2.31372547
185.60398865	2.39215684
185.60398865	2.33333325
185.60803223	2.21568632
185.61204529	2.13725495
185.61634827	2.17647052
185.62030029	2.25490189
185.62030029	2.33333325
185.62442017	2.41176462
185.62850952	2.47058821
185.63276672	2.52941179
185.63276672	2.64705873
185.63668823	2.86274505
185.64093018	2.84313726
185.64479065	2.72549009
185.64904785	2.74509811
185.64904785	2.80392146
185.65321350	2.80392146
185.65725708	2.74509811
185.66128540	2.60784316
185.66128540	2.62745094
185.66539001	2.76470590
185.66961670	2.80392146
185.67353821	2.84313726
185.67762756	2.78431368
185.67762756	2.64705873
185.68197632	2.56862736
185.68582153	2.47058821
185.68994141	2.41176462
185.68994141	2.45098042
185.69401550	2.43137264
185.69827271	2.43137264
185.70248413	2.45098042
185.70687866	2.50980401
185.71112061	2.49019599
185.71496582	2.50980401
185.71867371	2.52941179
185.71867371	2.54901958
185.72286987	2.58823538
185.72703552	2.58823538
185.73103333	2.60784316
185.73504639	2.66666675
185.73908997	2.66666675
185.74311829	2.68627453
185.74780273	2.72549009
185.74780273	2.70588231
185.75178528	2.74509811
185.75849915	2.78431368
185.75982666	2.76470590
185.76373291	2.86274505
185.76814270	2.82352948
185.77178955	2.76470590
185.77600098	2.72549009
185.77600098	2.74509811
185.78016663	2.70588231
185.78416443	2.66666675
185.78837585	2.66666675
185.78837585	2.62745094
185.79237366	2.56862736
185.79647827	2.50980401
185.80116272	2.49019599
185.80462646	2.49019599
185.80462646	2.47058821
185.80888367	2.43137264
185.81278992	2.37254906
185.81700134	2.37254906
185.81700134	2.33333325
185.82110596	2.29411769
185.82519531	2.25490189
185.82913208	2.25490189
185.83341980	2.27450991
185.83341980	2.33333325
185.83746338	2.39215684
185.84150696	2.39215684
185.84596252	2.37254906
185.84596252	2.37254906
185.85006714	2.39215684
185.85391235	2.43137264
185.85824585	2.45098042
185.86196899	2.45098042
185.86196899	2.43137264
185.86616516	2.43137264
185.87011719	2.43137264
185.87426758	2.47058821
185.87426758	2.50980401
185.87843323	2.54901958
185.88278198	2.54901958
185.88667297	2.54901958
185.89105225	2.54901958
185.89105225	2.56862736
185.89500427	2.60784316
185.89892578	2.62745094
185.90310669	2.62745094
185.90310669	2.62745094
185.90704346	2.62745094
185.91120911	2.60784316
185.91534424	2.62745094
185.91954041	2.68627453
185.92343140	2.66666675
185.92749023	2.66666675
185.93171692	2.62745094
185.93171692	2.58823538
185.93568420	2.60784316
185.93974304	2.62745094
185.94387817	2.62745094
185.94816589	2.60784316
185.95239258	2.58823538
185.95625305	2.56862736
185.96047974	2.58823538
185.96047974	2.58823538
185.96463013	2.58823538
185.96853638	2.62745094
185.97256470	2.58823538
185.97671509	2.54901958
185.98080444	2.56862736
185.98509216	2.54901958
185.98895264	2.54901958
185.98895264	2.49019599
185.99310303	2.43137264
185.99751282	2.39215684
186.00126648	2.37254906
186.00126648	2.35294127
186.00543213	2.33333325
186.00959778	2.31372547
186.01377869	2.29411769
186.01783752	2.27450991
186.01783752	2.27450991
186.02172852	2.25490189
186.02586365	2.25490189
186.02998352	2.25490189
186.02998352	2.25490189
186.03410339	2.27450991
186.03831482	2.27450991
186.04217529	2.29411769
186.04652405	2.31372547
186.04652405	2.33333325
186.05070496	2.31372547
186.05459595	2.33333325
186.05868530	2.37254906
186.05868530	2.37254906
186.06289673	2.37254906
186.06703186	2.37254906
186.07089233	2.37254906
186.07516479	2.39215684
186.07516479	2.41176462
186.07904053	2.41176462
186.08334351	2.41176462
186.08724976	2.41176462
186.08724976	2.43137264
186.09143066	2.43137264
186.09553528	2.43137264
186.09957886	2.45098042
186.10359192	2.47058821
186.10359192	2.47058821
186.10800171	2.49019599
186.11184692	2.50980401
186.11625671	2.52941179
186.11625671	2.52941179
186.12017822	2.52941179
186.12411499	2.50980401
186.12815857	2.50980401
186.13244629	2.50980401
186.13648987	2.52941179
186.14042664	2.52941179
186.14465332	2.50980401
186.14465332	2.49019599
186.14874268	2.49019599
186.15283203	2.47058821
186.15692139	2.47058821
186.16099548	2.43137264
186.16526794	2.43137264
186.16947937	2.41176462
186.17327881	2.37254906
186.17327881	2.37254906
186.17735291	2.39215684
186.18191528	2.39215684
186.18557739	2.39215684
186.18557739	2.39215684
186.18968201	2.37254906
186.19383240	2.41176462
186.19793701	2.39215684
186.20205688	2.43137264
186.20205688	2.45098042
186.20613098	2.49019599
186.21060181	2.45098042
186.21461487	2.47058821
186.21461487	2.47058821
186.21844482	2.54901958
186.22241211	2.56862736
186.22648621	2.54901958
186.23117065	2.56862736
186.23117065	2.58823538
186.23478699	2.56862736
186.23878479	2.58823538
186.24291992	2.58823538
186.24291992	2.54901958
186.24717712	2.54901958
186.25112915	2.54901958
186.25515747	2.56862736
186.25944519	2.50980401
186.25944519	2.50980401
186.26354980	2.52941179
186.26777649	2.52941179
186.27183533	2.47058821
186.27183533	2.45098042
186.27568054	2.45098042
186.27989197	2.47058821
186.28421021	2.45098042
186.28805542	2.43137264
186.28805542	2.41176462
186.29220581	2.43137264
186.29615784	2.45098042
186.30044556	2.45098042
186.30044556	2.41176462
186.30435181	2.37254906
186.30845642	2.37254906
186.31260681	2.37254906
186.31668091	2.37254906
186.32081604	2.35294127
186.32511902	2.33333325
186.32897949	2.33333325
186.32897949	2.35294127
186.33311462	2.35294127
186.33711243	2.35294127
186.34132385	2.37254906
186.34533691	2.35294127
186.34953308	2.37254906
186.35356140	2.37254906
186.35774231	2.41176462
186.35774231	2.39215684
186.36177063	2.37254906
186.36607361	2.35294127
186.36990356	2.33333325
186.37399292	2.37254906
186.37802124	2.39215684
186.38269043	2.41176462
186.38667297	2.39215684
186.38667297	2.35294127
186.39059448	2.35294127
186.39472961	2.37254906
186.39930725	2.37254906
186.39930725	2.41176462
186.40307617	2.43137264
186.40708923	2.43137264
186.41102600	2.41176462
186.41525269	2.39215684
186.41525269	2.43137264
186.41905212	2.45098042
186.42309570	2.45098042
186.42727661	2.43137264
186.42727661	2.39215684
186.43176270	2.37254906
186.43542480	2.35294127
186.43945313	2.37254906
186.44363403	2.39215684
186.44363403	2.37254906
186.44844055	2.37254906
186.45179749	2.37254906
186.45588684	2.35294127
186.45588684	2.35294127
186.46044922	2.37254906
186.46452332	2.35294127
186.46826172	2.35294127
186.47232056	2.35294127
186.47232056	2.33333325
186.47654724	2.35294127
186.48078918	2.35294127
186.48471069	2.35294127
186.48471069	2.37254906
186.48870850	2.37254906
186.49276733	2.39215684
186.49693298	2.41176462
186.50115967	2.39215684
186.50115967	2.39215684
186.50502014	2.41176462
186.50917053	2.43137264
186.51339722	2.43137264
186.51339722	2.43137264
186.51751709	2.43137264
186.52149963	2.41176462
186.52590942	2.41176462
186.52964783	2.39215684
186.53390503	2.41176462
186.53790283	2.41176462
186.54197693	2.41176462
186.54197693	2.41176462
186.54608154	2.41176462
186.55038452	2.37254906
186.55426025	2.37254906
186.55845642	2.41176462
186.56240845	2.37254906
186.56660461	2.37254906
186.57064819	2.35294127
186.57064819	2.33333325
186.57482910	2.33333325
186.57878113	2.35294127
186.58326721	2.35294127
186.58717346	2.33333325
186.59150696	2.33333325
186.59524536	2.37254906
186.59934998	2.41176462
186.59934998	2.45098042
186.60372925	2.47058821
186.60748291	2.45098042
186.61160278	2.43137264
186.61160278	2.41176462
186.61599731	2.45098042
186.61982727	2.47058821
186.62393188	2.47058821
186.62799072	2.49019599
186.62799072	2.47058821
186.63255310	2.45098042
186.63616943	2.45098042
186.64041138	2.49019599
186.64041138	2.50980401
186.64442444	2.50980401
186.64846802	2.50980401
186.65283203	2.47058821
186.65664673	2.45098042
186.65664673	2.41176462
186.66081238	2.41176462
186.66505432	2.39215684
186.66906738	2.39215684
186.66906738	2.41176462
186.67306519	2.43137264
186.67707825	2.45098042
186.68217468	2.47058821
186.68533325	2.47058821
186.68533325	2.45098042
186.68939209	2.43137264
186.69345093	2.39215684
186.69816589	2.43137264
186.69816589	2.41176462
186.70190430	2.41176462
186.70614624	2.47058821
186.71023560	2.45098042
186.71412659	2.35294127
186.71412659	2.37254906
186.71879578	2.43137264
186.72244263	2.45098042
186.72666931	2.50980401
186.72666931	2.52941179
186.73089600	2.50980401
186.73480225	2.49019599
186.73864746	2.50980401
186.74270630	2.49019599
186.74720764	2.47058821
186.75114441	2.45098042
186.75523376	2.49019599
186.75523376	2.50980401
186.75947571	2.50980401
186.76365662	2.47058821
186.76733398	2.47058821
186.77180481	2.52941179
186.77581787	2.54901958
186.77967834	2.54901958
186.78398132	2.49019599
186.78398132	2.47058821
186.78810120	2.52941179
186.79180908	2.52941179
186.79602051	2.50980401
186.79602051	2.49019599
186.80015564	2.49019599
186.80410767	2.50980401
186.80821228	2.54901958
186.81234741	2.54901958
186.81234741	2.54901958
186.81648254	2.54901958
186.82090759	2.52941179
186.82470703	2.52941179
186.82470703	2.52941179
186.82873535	2.56862736
186.83285522	2.58823538
186.83712769	2.56862736
186.84104919	2.54901958
186.84104919	2.52941179
186.84507751	2.52941179
186.84922791	2.50980401
186.85317993	2.50980401
186.85317993	2.50980401
186.85743713	2.49019599
186.86193848	2.47058821
186.86593628	2.47058821
186.86972046	2.45098042
186.86972046	2.43137264
186.87384033	2.41176462
186.87785339	2.41176462
186.88221741	2.45098042
186.88221741	2.47058821
186.88623047	2.50980401
186.89031982	2.50980401
186.89430237	2.50980401
186.89848328	2.52941179
186.89848328	2.54901958
186.90261841	2.54901958
186.90658569	2.56862736
186.91069031	2.56862736
186.91069031	2.60784316
186.91513062	2.60784316
186.91885376	2.60784316
186.92329407	2.60784316
186.92730713	2.60784316
186.93179321	2.62745094
186.93565369	2.62745094
186.93948364	2.60784316
186.93948364	2.60784316
186.94361877	2.56862736
186.94766235	2.54901958
186.95162964	2.54901958
186.95570374	2.52941179
186.95970154	2.50980401
186.96400452	2.47058821
186.96789551	2.45098042
186.96789551	2.47058821
186.97201538	2.47058821
186.97612000	2.50980401
186.98051453	2.50980401
186.98469543	2.49019599
186.98854065	2.49019599
186.99275208	2.49019599
186.99665833	2.52941179
186.99665833	2.56862736
187.00077820	2.56862736
187.00486755	2.54901958
187.00897217	2.52941179
187.00897217	2.50980401
187.01306152	2.52941179
187.01713562	2.56862736
187.02119446	2.58823538
187.02536011	2.54901958
187.02536011	2.52941179
187.02932739	2.52941179
187.03352356	2.50980401
187.03770447	2.52941179
187.03770447	2.54901958
187.04173279	2.54901958
187.04573059	2.49019599
187.04986572	2.47058821
187.05429077	2.50980401
187.05429077	2.50980401
187.05804443	2.54901958
187.06214905	2.54901958
187.06631470	2.56862736
187.06631470	2.52941179
187.07038879	2.47058821
187.07444763	2.47058821
187.07853699	2.47058821
187.08268738	2.47058821
187.08268738	2.47058821
187.08683777	2.52941179
187.09111023	2.50980401
187.09552002	2.52941179
187.09552002	2.52941179
187.09907532	2.52941179
187.10327148	2.54901958
187.10734558	2.56862736
187.11141968	2.54901958
187.11141968	2.50980401
187.11549377	2.50980401
187.11955261	2.50980401
187.12368774	2.52941179
187.12368774	2.49019599
187.12779236	2.49019599
187.13188171	2.52941179
187.13616943	2.54901958
187.14115906	2.58823538
187.14456177	2.56862736
187.14823914	2.60784316
187.15284729	2.60784316
187.15284729	2.60784316
187.15663147	2.62745094
187.16111755	2.60784316
187.16459656	2.60784316
187.16899109	2.54901958
187.17280579	2.58823538
187.17691040	2.56862736
187.18130493	2.52941179
187.18130493	2.52941179
187.18516541	2.52941179
187.18907166	2.52941179
187.19322205	2.56862736
187.19322205	2.56862736
187.19761658	2.54901958
187.20159912	2.56862736
187.20562744	2.58823538
187.20979309	2.54901958
187.20979309	2.50980401
187.21415710	2.52941179
187.21800232	2.54901958
187.22207642	2.52941179
187.22207642	2.47058821
187.22631836	2.47058821
187.23030090	2.47058821
187.23426819	2.49019599
187.23832703	2.49019599
187.23832703	2.45098042
187.24240112	2.45098042
187.24650574	2.47058821
187.25067139	2.49019599
187.25067139	2.47058821
187.25469971	2.45098042
187.25875854	2.45098042
187.26292419	2.45098042
187.26702881	2.49019599
187.26702881	2.52941179
187.27125549	2.50980401
187.27519226	2.47058821
187.27931213	2.47058821
187.27931213	2.52941179
187.28337097	2.54901958
187.28768921	2.56862736
187.29161072	2.54901958
187.29568481	2.56862736
187.29568481	2.56862736
187.29997253	2.56862736
187.30384827	2.58823538
187.30796814	2.60784316
187.30796814	2.58823538
187.31202698	2.58823538
187.31616211	2.54901958
187.32026672	2.52941179
187.32434082	2.56862736
187.32843018	2.56862736
187.33253479	2.54901958
187.33670044	2.54901958
187.33670044	2.50980401
187.34078979	2.52941179
187.34519958	2.52941179
187.34890747	2.54901958
187.35305786	2.54901958
187.35708618	2.52941179
187.36119080	2.54901958
187.36546326	2.54901958
187.36546326	2.52941179
187.36941528	2.52941179
187.37348938	2.52941179
187.37754822	2.50980401
187.38195801	2.49019599
187.38580322	2.49019599
187.38987732	2.49019599
187.39395142	2.50980401
187.39395142	2.50980401
187.39810181	2.49019599
187.40214539	2.49019599
187.40634155	2.47058821
187.40634155	2.47058821
187.41058350	2.47058821
187.41450500	2.49019599
187.41867065	2.52941179
187.42280579	2.52941179
187.42280579	2.52941179
187.42678833	2.52941179
187.43086243	2.52941179
187.43499756	2.54901958
187.43499756	2.56862736
187.43902588	2.54901958
187.44332886	2.52941179
187.44728088	2.52941179
187.45162964	2.52941179
187.45162964	2.52941179
187.45559692	2.52941179
187.45971680	2.52941179
187.46380615	2.50980401
187.46380615	2.49019599
187.46772766	2.43137264
187.47174072	2.41176462
187.47589111	2.41176462
187.48028564	2.43137264
187.48028564	2.45098042
187.48414612	2.43137264
187.48820496	2.45098042
187.49232483	2.49019599
187.49232483	2.43137264
187.49636841	2.52941179
187.50065613	2.62745094
187.50456238	2.68627453
187.50878906	2.74509811
187.50878906	2.72549009
187.51309204	2.66666675
187.51699829	2.66666675
187.52105713	2.70588231
187.52105713	2.78431368
187.52503967	2.84313726
187.52943420	2.90196085
187.53340149	2.96078420
187.53738403	3.05882359
187.54150391	3.05882359
187.54591370	3.05882359
187.54971313	3.01960778
187.54971313	3.00000000
187.55375671	2.96078420
187.55789185	2.88235283
187.56193542	2.86274505
187.56613159	2.64705873
187.57020569	2.49019599
187.57429504	2.37254906
187.57835388	2.27450991
187.57835388	2.07843137
187.58267212	2.07843137
187.58695984	2.15686274
187.59062195	2.13725495
187.59062195	2.11764717
187.59480286	2.19607854
187.59886169	2.25490189
187.60327148	2.29411769
187.60704041	2.35294127
187.60704041	2.37254906
187.61106873	2.43137264
187.61531067	2.41176462
187.61927795	2.45098042
187.61927795	2.47058821
187.62335205	2.47058821
187.62747192	2.45098042
187.63172913	2.43137264
187.63575745	2.54901958
187.63575745	2.62745094
187.63986206	2.68627453
187.64381409	2.64705873
187.64808655	2.68627453
187.64808655	2.76470590
187.65219116	2.82352948
187.65628052	2.88235283
187.66024780	3.00000000
187.66456604	3.05882359
187.66456604	3.13725495
187.66839600	3.21568632
187.67257690	3.17647052
187.67671204	3.11764717
187.67671204	3.05882359
187.68112183	2.96078420
187.68486023	2.98039222
187.68894958	2.86274505
187.69306946	2.92156863
187.69306946	2.98039222
187.69740295	3.00000000
187.70133972	3.00000000
187.70535278	2.98039222
187.70535278	3.00000000
187.70939636	3.01960778
187.71450806	3.07843137
187.71777344	3.23529410
187.72177124	3.37254906
187.72177124	3.54901958
187.72575378	3.56862736
187.73008728	3.41176462
187.73420715	3.19607854
187.73420715	3.03921580
187.73805237	3.00000000
187.74215698	3.13725495
187.74627686	3.23529410
187.75048828	3.17647052
187.75465393	3.05882359
187.75888062	3.01960778
187.76307678	3.05882359
187.76307678	3.31372547
187.76692200	3.19607854
187.77119446	3.17647052
187.77519226	3.33333325
187.77935791	3.41176462
187.78329468	3.60784316
187.78720093	3.58823538
187.79136658	3.50980401
187.79136658	3.35294127
187.79547119	3.27450991
187.79966736	3.07843137
187.80364990	2.88235283
187.80364990	2.64705873
187.80776978	2.37254906
187.81181335	2.31372547
187.81602478	2.47058821
187.82008362	2.47058821
187.82008362	2.29411769
187.82429504	1.98039210
187.82815552	1.72549021
187.83264160	1.52941179
187.83264160	1.43137252
187.83660889	1.43137252
187.84054565	1.43137252
187.84463501	1.54901958
187.84883118	1.80392158
187.84883118	2.17647052
187.85273743	2.58823538
187.85693359	2.94117641
187.86100769	3.01960778
187.86100769	2.94117641
187.86558533	2.96078420
187.86917114	2.88235283
187.87326050	3.07843137
187.87736511	3.21568632
187.87736511	3.41176462
187.88175964	3.41176462
187.88554382	3.39215684
187.88970947	3.25490189
187.88970947	3.19607854
187.89375305	3.21568632
187.89787292	3.09803915
187.90219116	2.90196085
187.90614319	2.68627453
187.90614319	2.66666675
187.91020203	2.50980401
187.91424561	2.09803915
187.91844177	1.80392158
187.91844177	1.78431368
187.92240906	1.76470590
187.92649841	2.05882359
187.93130493	2.49019599
187.93478394	2.86274505
187.93902588	2.84313726
187.94299316	2.90196085
187.94732666	3.03921580
187.94732666	3.09803915
187.95123291	3.27450991
187.95520020	3.39215684
187.95944214	3.68627453
187.96371460	3.70588231
187.96751404	3.25490189
187.97161865	2.62745094
187.97561646	2.35294127
187.97561646	2.39215684
187.98001099	2.56862736
187.98393250	2.66666675
187.98809814	2.58823538
187.99208069	1.90196073
187.99615479	1.80392158
188.00047302	1.94117641
188.00447083	2.11764717
188.00447083	2.11764717
188.00857544	2.13725495
188.01255798	1.90196073
188.01695251	1.66666663
188.01695251	1.62745094
188.02081299	1.54901958
188.02513123	1.62745094
188.02896118	1.60784316
188.03335571	1.70588231
188.03335571	1.86274505
188.03710938	2.19607854
188.04124451	2.43137264
188.04531860	2.45098042
188.04531860	2.29411769
188.04956055	2.21568632
188.05349731	2.05882359
188.05758667	2.05882359
188.06178284	2.27450991
188.06178284	2.56862736
188.06620789	2.74509811
188.07031250	2.60784316
188.07408142	2.21568632
188.07408142	1.82352936
188.07807922	1.64705884
188.08224487	1.88235295
188.08660889	1.94117641
188.09042358	1.92156863
188.09042358	1.86274505
188.09446716	1.82352936
188.09861755	1.76470590
188.10263062	1.76470590
188.10263062	1.98039210
188.10685730	2.15686274
188.11097717	2.21568632
188.11547852	2.11764717
188.11904907	1.80392158
188.12313843	2.00000000
188.12716675	2.17647052
188.13185120	2.25490189
188.13185120	2.19607854
188.13555908	2.07843137
188.13952637	2.03921580
188.14398193	2.00000000
188.14808655	2.52941179
188.15179443	2.64705873
188.15608215	2.52941179
188.16076660	2.41176462
188.16076660	2.17647052
188.16415405	2.07843137
188.16828918	2.21568632
188.17228699	2.27450991
188.17640686	2.21568632
188.18087769	2.17647052
188.18458557	2.41176462
188.18870544	2.76470590
188.18870544	2.92156863
188.19284058	2.82352948
188.19728088	2.90196085
188.20103455	2.80392146
188.20103455	2.56862736
188.20503235	2.41176462
188.20960999	2.41176462
188.21360779	2.52941179
188.21759033	2.25490189
188.21759033	2.01960778
188.22164917	1.86274505
188.22570801	1.78431368
188.22978210	1.98039210
188.22978210	2.29411769
188.23391724	2.41176462
188.23783875	2.52941179
188.24192810	2.56862736
188.24604797	2.52941179
188.24604797	2.50980401
188.25028992	2.76470590
188.25431824	2.86274505
188.25840759	2.64705873
188.25840759	2.45098042
188.26255798	2.17647052
188.26670837	2.11764717
188.27075195	2.50980401
188.27494812	2.98039222
188.27494812	3.29411769
188.27886963	3.37254906
188.28303528	3.21568632
188.28721619	2.98039222
188.28721619	2.52941179
188.29130554	2.15686274
188.29521179	2.15686274
188.29945374	2.27450991
188.30337524	2.66666675
188.30337524	2.98039222
188.30747986	2.96078420
188.31155396	2.86274505
188.31587219	2.88235283
188.31587219	2.62745094
188.31982422	2.66666675
188.32406616	2.78431368
188.32791138	3.07843137
188.33235168	3.15686274
188.33621216	3.19607854
188.34040833	3.09803915
188.34437561	2.82352948
188.34437561	2.78431368
188.34849548	2.64705873
188.35276794	2.43137264
188.35664368	2.21568632
188.36074829	2.21568632
188.36495972	2.37254906
188.36892700	2.05882359
188.37303162	1.80392158
188.37303162	1.72549021
188.37705994	1.86274505
188.38133240	1.96078432
188.38540649	2.23529410
188.38940430	2.56862736
188.39352417	2.50980401
188.39772034	2.52941179
188.40187073	2.62745094
188.40187073	2.92156863
188.40585327	3.05882359
188.40991211	2.98039222
188.41403198	2.78431368
188.41403198	2.54901958
188.41816711	2.54901958
188.42218018	2.80392146
188.42626953	3.09803915
188.43072510	3.21568632
188.43072510	2.78431368
188.43450928	2.37254906
188.43849182	2.25490189
188.44262695	2.01960778
188.44262695	1.90196073
188.44692993	2.11764717
188.45091248	2.25490189
188.45501709	2.29411769
188.45906067	2.33333325
188.45906067	2.74509811
188.46319580	2.94117641
188.46736145	2.47058821
188.47160339	2.01960778
188.47160339	1.84313726
188.47564697	2.00000000
188.48040771	2.09803915
188.48365784	2.25490189
188.48783875	2.54901958
188.48783875	2.80392146
188.49180603	2.80392146
188.49589539	2.58823538
188.50027466	2.58823538
188.50027466	2.56862736
188.50439453	2.39215684
188.50823975	2.33333325
188.51251221	2.21568632
188.51647949	2.25490189
188.51647949	2.31372547
188.52056885	2.07843137
188.52456665	1.98039210
188.52883911	1.88235295
188.52883911	1.76470590
188.53291321	1.70588231
188.53688049	1.96078432
188.54110718	2.21568632
188.54507446	2.54901958
188.54933167	2.66666675
188.55322266	2.60784316
188.55737305	2.37254906
188.55737305	2.23529410
188.56144714	2.17647052
188.56578064	2.23529410
188.56970215	2.19607854
188.57388306	2.13725495
188.57818604	2.19607854
188.58238220	2.35294127
188.58610535	2.19607854
188.58610535	2.27450991
188.59020996	2.43137264
188.59417725	2.39215684
188.59854126	2.15686274
188.59854126	2.09803915
188.60246277	1.96078432
188.60650635	2.05882359
188.61068726	2.17647052
188.61491394	2.09803915
188.61491394	2.11764717
188.61880493	2.29411769
188.62289429	2.37254906
188.62744141	2.49019599
188.62744141	2.76470590
188.63125610	2.78431368
188.63536072	2.76470590
188.63926697	2.74509811
188.64355469	2.74509811
188.64355469	2.66666675
188.64782715	2.60784316
188.65153503	2.64705873
188.65571594	2.62745094
188.65571594	2.60784316
188.65971375	2.49019599
188.66409302	2.49019599
188.66810608	2.45098042
188.67205811	2.43137264
188.67205811	2.27450991
188.67613220	2.21568632
188.68041992	2.19607854
188.68443298	2.11764717
188.68443298	2.25490189
188.68843079	2.37254906
188.69256592	2.50980401
188.69680786	2.64705873
188.70089722	2.80392146
188.70089722	2.92156863
188.70484924	2.84313726
188.70896912	2.29411769
188.71310425	1.98039210
188.71310425	2.17647052
188.71719360	2.54901958
188.72138977	2.74509811
188.72531128	2.56862736
188.72940063	2.45098042
188.72940063	2.43137264
188.73385620	2.49019599
188.73757935	2.54901958
188.74177551	2.49019599
188.74177551	2.43137264
188.74577332	2.29411769
188.75019836	2.35294127
188.75408936	2.66666675
188.75837708	3.07843137
188.76272583	3.41176462
188.76640320	3.39215684
188.77064514	3.11764717
188.77064514	2.50980401
188.77473450	2.17647052
188.77874756	2.50980401
188.78274536	2.43137264
188.78695679	2.43137264
188.79103088	2.52941179
188.79539490	2.60784316
188.79925537	2.60784316
188.79925537	2.37254906
188.80319214	2.07843137
188.80722046	1.94117641
188.81143188	1.92156863
188.81143188	1.92156863
188.81591797	1.86274505
188.81956482	1.98039210
188.82376099	2.05882359
188.82777405	1.90196073
188.82777405	1.98039210
188.83204651	2.15686274
188.83605957	2.45098042
188.84008789	2.82352948
188.84008789	2.66666675
188.84405518	2.47058821
188.84829712	2.35294127
188.85227966	2.23529410
188.85649109	2.17647052
188.85649109	2.01960778
188.86045837	2.19607854
188.86505127	2.31372547
188.86868286	2.45098042
188.86868286	2.47058821
188.87277222	2.64705873
188.87681580	2.80392146
188.88105774	2.80392146
188.88522339	2.64705873
188.88522339	2.82352948
188.88937378	2.78431368
188.89326477	2.72549009
188.89743042	2.49019599
188.89743042	2.05882359
188.90168762	2.00000000
188.90560913	1.94117641
188.90960693	1.82352936
188.91381836	1.74509799
188.91381836	1.66666663
188.91825867	1.76470590
188.92193604	2.00000000
188.92604065	2.17647052
188.92604065	2.43137264
188.93028259	2.52941179
188.93432617	2.84313726
188.93835449	2.90196085
188.94253540	2.47058821
188.94656372	2.19607854
188.95074463	1.98039210
188.95472717	1.70588231
188.95472717	1.49019611
188.95875549	1.94117641
188.96296692	2.43137264
188.96720886	2.70588231
188.97116089	3.17647052
188.97518921	3.15686274
188.97926331	2.94117641
188.98353577	2.76470590
188.98353577	2.54901958
188.98744202	2.25490189
188.99156189	2.01960778
188.99563599	1.90196073
189.00007629	2.07843137
189.00390625	2.01960778
189.00802612	2.15686274
189.01214600	2.25490189
189.01214600	2.25490189
189.01623535	2.19607854
189.02023315	2.21568632
189.02464294	2.45098042
189.02464294	2.37254906
189.02850342	2.41176462
189.03257751	2.62745094
189.03675842	2.98039222
189.04081726	3.11764717
189.04081726	3.11764717
189.04481506	3.11764717
189.04913330	2.66666675
189.05302429	2.31372547
189.05302429	2.00000000
189.05709839	2.05882359
189.06118774	2.17647052
189.06567383	2.27450991
189.06958008	2.41176462
189.06958008	2.07843137
189.07357788	1.96078432
189.07769775	2.01960778
189.08222961	2.19607854
189.08222961	2.31372547
189.08576965	2.56862736
189.09004211	2.72549009
189.09403992	2.66666675
189.09846497	2.54901958
189.09846497	2.19607854
189.10214233	1.82352936
189.10644531	2.03921580
189.11038208	2.01960778
189.11038208	2.07843137
189.11479187	2.17647052
189.11854553	2.39215684
189.12263489	2.60784316
189.12670898	2.76470590
189.12670898	2.56862736
189.13095093	2.64705873
189.13511658	2.47058821
189.13916016	2.09803915
189.13916016	2.07843137
189.14328003	2.09803915
189.14730835	2.09803915
189.15145874	2.09803915
189.15557861	2.07843137
189.15959167	2.21568632
189.16368103	2.09803915
189.16807556	2.17647052
189.16807556	2.23529410
189.17181396	2.25490189
189.17591858	2.19607854
189.18014526	2.17647052
189.18417358	2.23529410
189.18815613	2.09803915
189.19223022	1.90196073
189.19636536	1.90196073
189.19636536	2.00000000
189.20069885	2.07843137
189.20465088	2.25490189
189.20867920	2.47058821
189.21276855	2.25490189
189.21726990	2.39215684
189.22100830	2.29411769
189.22512817	2.21568632
189.22512817	2.07843137
189.22918701	2.17647052
189.23367310	2.33333325
189.23735046	2.39215684
189.23735046	2.43137264
189.24143982	2.25490189
189.24552917	2.31372547
189.24981689	2.31372547
189.25381470	2.25490189
189.25381470	2.29411769
189.25790405	2.41176462
189.26203918	2.45098042
189.26620483	2.41176462
189.26620483	2.37254906
189.27050781	2.35294127
189.27438354	2.35294127
189.27847290	2.37254906
189.28279114	2.39215684
189.28279114	2.35294127
189.28656006	2.37254906
189.29075623	2.49019599
189.29476929	2.49019599
189.29476929	2.45098042
189.29910278	2.39215684
189.30287170	2.37254906
189.30697632	2.37254906
189.31111145	2.39215684
189.31111145	2.39215684
189.31550598	2.43137264
189.31941223	2.50980401
189.32348633	2.54901958
189.32348633	2.54901958
189.32754517	2.58823538
189.33187866	2.60784316
189.33569336	2.62745094
189.33996582	2.70588231
189.33996582	2.76470590
189.34387207	2.76470590
189.34812927	2.72549009
189.35206604	2.60784316
189.35206604	2.56862736
189.35627747	2.64705873
189.36022949	2.66666675
189.36488342	2.64705873
189.36843872	2.58823538
189.37252808	2.54901958
189.37661743	2.50980401
189.38113403	2.45098042
189.38113403	2.41176462
189.38479614	2.39215684
189.38909912	2.35294127
189.39318848	2.29411769
189.39717102	2.27450991
189.40130615	2.23529410
189.40531921	2.21568632
189.40945435	2.23529410
189.40945435	2.25490189
189.41394043	2.25490189
189.41789246	2.25490189
189.42178345	2.27450991
189.42178345	2.27450991
189.42578125	2.25490189
189.43011475	2.25490189
189.43420410	2.23529410
189.43811035	2.25490189
189.43811035	2.25490189
189.44221497	2.27450991
189.44641113	2.31372547
189.45042419	2.35294127
189.45042419	2.37254906
189.45449829	2.37254906
189.45877075	2.41176462
189.46286011	2.43137264
189.46687317	2.45098042
189.46687317	2.49019599
189.47082520	2.47058821
189.47496033	2.49019599
189.47909546	2.50980401
189.47909546	2.50980401
189.48321533	2.49019599
189.48721313	2.49019599
189.49131775	2.49019599
189.49543762	2.47058821
189.49543762	2.49019599
189.49969482	2.47058821
189.50360107	2.47058821
189.50776672	2.47058821
189.50776672	2.45098042
189.51190186	2.47058821
189.51603699	2.45098042
189.52020264	2.41176462
189.52427673	2.37254906
189.52427673	2.39215684
189.52853394	2.39215684
189.53247070	2.39215684
189.53659058	2.37254906
189.53659058	2.33333325
189.54052734	2.29411769
189.54472351	2.27450991
189.54919434	2.27450991
189.55299377	2.21568632
189.55299377	2.23529410
189.55676270	2.21568632
189.56095886	2.21568632
189.56513977	2.21568632
189.56513977	2.19607854
189.56909180	2.17647052
189.57344055	2.21568632
189.57743835	2.21568632
189.58157349	2.25490189
189.58552551	2.33333325
189.58972168	2.33333325
189.59393311	2.31372547
189.59393311	2.37254906
189.59793091	2.45098042
189.60188293	2.49019599
189.60604858	2.47058821
189.61019897	2.50980401
189.61471558	2.54901958
189.61833191	2.58823538
189.62251282	2.58823538
189.62251282	2.58823538
189.62652588	2.64705873
189.63061523	2.68627453
189.63484192	2.70588231
189.63484192	2.68627453
189.63891602	2.66666675
189.64294434	2.66666675
189.64707947	2.68627453
189.65116882	2.72549009
189.65116882	2.68627453
189.65528870	2.66666675
189.65940857	2.64705873
189.66355896	2.68627453
189.66355896	2.70588231
189.66748047	2.72549009
189.67158508	2.70588231
189.67579651	2.68627453
189.67990112	2.68627453
189.67990112	2.70588231
189.68397522	2.72549009
189.68804932	2.72549009
189.69212341	2.74509811
189.69212341	2.72549009
189.69616699	2.72549009
189.70033264	2.74509811
189.70429993	2.76470590
189.70840454	2.78431368
189.70840454	2.78431368
189.71267700	2.76470590
189.71675110	2.78431368
189.72090149	2.80392146
189.72090149	2.76470590
189.72476196	2.70588231
189.72886658	2.66666675
189.73310852	2.64705873
189.73712158	2.62745094
189.73712158	2.60784316
189.74119568	2.56862736
189.74539185	2.54901958
189.74954224	2.50980401
189.74954224	2.49019599
189.75360107	2.43137264
189.75781250	2.39215684
189.76179504	2.41176462
189.76589966	2.31372547
189.76983643	2.27450991
189.77404785	2.25490189
189.77841187	2.27450991
189.77841187	2.25490189
189.78228760	2.23529410
189.78622437	2.21568632
189.79051208	2.21568632
189.79496765	2.23529410
189.79887390	2.25490189
189.80264282	2.27450991
189.80685425	2.25490189
189.80685425	2.23529410
189.81089783	2.23529410
189.81513977	2.25490189
189.81919861	2.25490189
189.82359314	2.27450991
189.82731628	2.29411769
189.83139038	2.27450991
189.83540344	2.27450991
189.83540344	2.29411769
189.83976746	2.31372547
189.84381104	2.33333325
189.84808350	2.35294127
189.84808350	2.35294127
189.85180664	2.37254906
189.85586548	2.45098042
189.86013794	2.45098042
189.86465454	2.47058821
189.86465454	2.49019599
189.86816406	2.49019599
189.87228394	2.50980401
189.87638855	2.50980401
189.87638855	2.52941179
189.88052368	2.56862736
189.88461304	2.58823538
189.88882446	2.56862736
189.89274597	2.54901958
189.89274597	2.54901958
189.89688110	2.54901958
189.90130615	2.58823538
189.90505981	2.52941179
189.90505981	2.50980401
189.90919495	2.50980401
189.91336060	2.50980401
189.91766357	2.52941179
189.92155457	2.54901958
189.92155457	2.52941179
189.92553711	2.54901958
189.92976379	2.52941179
189.93388367	2.54901958
189.93388367	2.54901958
189.93782043	2.52941179
189.94197083	2.50980401
189.94602966	2.52941179
189.95030212	2.52941179
189.95030212	2.54901958
189.95439148	2.56862736
189.95834351	2.60784316
189.96241760	2.62745094
189.96241760	2.62745094
189.96670532	2.64705873
189.97076416	2.64705873
189.97485352	2.66666675
189.97883606	2.70588231
189.98298645	2.72549009
189.98698425	2.74509811
189.99108887	2.76470590
189.99108887	2.76470590
189.99516296	2.74509811
189.99945068	2.76470590
190.00337219	2.72549009
190.00752258	2.74509811
190.01176453	2.70588231
190.01573181	2.70588231
190.01991272	2.66666675
190.01991272	2.64705873
190.02391052	2.64705873
190.02807617	2.62745094
190.03211975	2.64705873
190.03608704	2.60784316
190.04017639	2.58823538
190.04441833	2.52941179
190.04879761	2.52941179
190.04879761	2.54901958
190.05252075	2.50980401
190.05696106	2.50980401
190.06077576	2.50980401
190.06077576	2.50980401
190.06494141	2.45098042
190.06895447	2.43137264
190.07318115	2.47058821
190.07707214	2.45098042
190.07707214	2.43137264
190.08123779	2.41176462
190.08526611	2.39215684
190.08950806	2.41176462
190.08950806	2.39215684
190.09359741	2.33333325
190.09797668	2.29411769
190.10218811	2.29411769
190.10626221	2.29411769
190.10626221	2.31372547
190.10992432	2.31372547
190.11450195	2.27450991
190.11839294	2.25490189
190.11839294	2.29411769
190.12231445	2.31372547
190.12643433	2.33333325
190.13053894	2.33333325
190.13453674	2.31372547
190.13453674	2.35294127
190.13903809	2.39215684
190.14302063	2.43137264
190.14715576	2.45098042
190.14715576	2.43137264
190.15110779	2.43137264
190.15513611	2.43137264
190.15934753	2.43137264
190.16371155	2.47058821
190.16371155	2.49019599
190.16751099	2.52941179
190.17185974	2.54901958
190.17572021	2.52941179
190.17572021	2.52941179
190.17961121	2.52941179
190.18395996	2.50980401
190.18777466	2.50980401
190.19174194	2.58823538
190.19584656	2.56862736
190.20018005	2.54901958
190.20407104	2.52941179
190.20407104	2.54901958
190.20814514	2.52941179
190.21223450	2.52941179
190.21659851	2.52941179
190.22050476	2.56862736
190.22450256	2.56862736
190.22872925	2.58823538
190.23298645	2.56862736
190.23298645	2.54901958
190.23686218	2.54901958
190.24092102	2.54901958
190.24507141	2.52941179
190.24507141	2.56862736
190.24931335	2.56862736
190.25318909	2.56862736
190.25738525	2.56862736
190.26174927	2.56862736
190.26174927	2.54901958
190.26562500	2.52941179
190.26980591	2.54901958
190.27384949	2.56862736
190.27384949	2.58823538
190.27789307	2.60784316
190.28196716	2.58823538
190.28594971	2.56862736
190.29017639	2.56862736
190.29017639	2.54901958
190.29434204	2.52941179
190.29881287	2.56862736
190.30245972	2.60784316
190.30245972	2.60784316
190.30654907	2.56862736
190.31059265	2.54901958
190.31481934	2.52941179
190.31880188	2.50980401
190.31880188	2.47058821
190.32302856	2.45098042
190.32701111	2.47058821
190.33116150	2.49019599
190.33116150	2.49019599
190.33515930	2.45098042
190.33944702	2.45098042
190.34349060	2.45098042
190.34756470	2.43137264
190.34756470	2.43137264
190.35174561	2.41176462
190.35581970	2.43137264
190.35977173	2.47058821
190.35977173	2.49019599
190.36415100	2.50980401
190.36793518	2.52941179
190.37202454	2.52941179
190.37614441	2.52941179
190.38017273	2.52941179
190.38449097	2.52941179
190.38853455	2.50980401
190.38853455	2.49019599
190.39259338	2.49019599
190.39689636	2.52941179
190.40106201	2.52941179
190.40483093	2.50980401
190.40892029	2.50980401
190.41308594	2.49019599
190.41738892	2.45098042
190.41738892	2.43137264
190.42124939	2.45098042
190.42529297	2.47058821
190.42939758	2.47058821
190.43363953	2.49019599
190.43756104	2.47058821
190.44158936	2.43137264
190.44575500	2.41176462
190.44575500	2.43137264
190.45001221	2.47058821
190.45405579	2.49019599
190.45820618	2.50980401
190.45820618	2.52941179
190.46211243	2.50980401
190.46638489	2.50980401
190.47039795	2.54901958
190.47442627	2.52941179
190.47442627	2.54901958
190.47871399	2.54901958
190.48291016	2.52941179
190.48675537	2.54901958
190.48675537	2.52941179
190.49082947	2.56862736
190.49502563	2.56862736
190.49926758	2.60784316
190.50321960	2.58823538
190.50321960	2.60784316
190.50724792	2.62745094
190.51162720	2.60784316
190.51556396	2.60784316
190.51556396	2.60784316
190.51943970	2.58823538
190.52388000	2.58823538
190.52798462	2.58823538
190.53201294	2.54901958
190.53201294	2.54901958
190.53585815	2.56862736
190.53991699	2.56862736
190.54463196	2.50980401
190.54463196	2.50980401
190.54858398	2.52941179
190.55227661	2.52941179
190.55636597	2.50980401
190.56056213	2.47058821
190.56056213	2.47058821
190.56495667	2.50980401
190.56993103	2.52941179
190.57319641	2.49019599
190.57319641	2.47058821
190.57737732	2.49019599
190.58117676	2.50980401
190.58557129	2.52941179
190.58932495	2.52941179
190.59365845	2.50980401
190.59820557	2.52941179
190.60160828	2.58823538
190.60160828	2.58823538
190.60571289	2.56862736
190.60969543	2.52941179
190.61396790	2.52941179
190.61790466	2.56862736
190.62196350	2.56862736
190.62622070	2.56862736
190.63046265	2.54901958
190.63046265	2.52941179
190.63446045	2.52941179
190.63827515	2.54901958
190.64247131	2.56862736
190.64247131	2.54901958
190.64653015	2.50980401
190.65080261	2.49019599
190.65504456	2.47058821
190.65881348	2.49019599
190.65881348	2.50980401
190.66296387	2.49019599
190.66697693	2.49019599
190.67109680	2.49019599
190.67109680	2.47058821
190.67517090	2.47058821
190.67930603	2.47058821
190.68345642	2.49019599
190.68746948	2.49019599
190.68746948	2.49019599
190.69155884	2.47058821
190.69581604	2.45098042
190.69992065	2.45098042
190.69992065	2.47058821
190.70382690	2.47058821
190.70793152	2.47058821
190.71228027	2.47058821
190.71623230	2.45098042
190.71623230	2.47058821
190.72035217	2.47058821
190.72441101	2.49019599
190.72851563	2.49019599
190.72851563	2.49019599
190.73295593	2.47058821
190.73677063	2.50980401
190.74075317	2.56862736
190.74481201	2.56862736
190.74481201	2.58823538
190.74916077	2.58823538
190.75332642	2.58823538
190.75735474	2.56862736
190.75735474	2.56862736
190.76153564	2.56862736
190.76538086	2.58823538
190.76933289	2.58823538
190.77346802	2.56862736
190.77775574	2.60784316
190.78179932	2.58823538
190.78576660	2.56862736
190.78576660	2.56862736
190.78996277	2.54901958
190.79425049	2.54901958
190.79850769	2.56862736
190.80215454	2.60784316
190.80621338	2.60784316
190.81042480	2.56862736
190.81488037	2.56862736
190.81488037	2.56862736
190.81855774	2.56862736
190.82272339	2.56862736
190.82691956	2.56862736
190.83090210	2.56862736
190.83500671	2.54901958
190.83915710	2.52941179
190.84353638	2.52941179
190.84353638	2.50980401
190.84725952	2.49019599
190.85154724	2.49019599
190.85551453	2.49019599
190.85551453	2.50980401
190.85961914	2.50980401
190.86369324	2.47058821
190.86790466	2.45098042
190.87203979	2.45098042
190.87203979	2.43137264
190.87609863	2.43137264
190.88014221	2.45098042
190.88461304	2.47058821
190.88461304	2.49019599
190.88827515	2.50980401
190.89228821	2.47058821
190.89642334	2.43137264
190.90054321	2.45098042
190.90054321	2.47058821
190.90475464	2.49019599
190.90873718	2.50980401
190.91281128	2.52941179
190.91281128	2.52941179
190.91716003	2.52941179
190.92109680	2.52941179
190.92504883	2.52941179
190.92915344	2.54901958
190.92915344	2.50980401
190.93336487	2.52941179
190.93730164	2.50980401
190.94139099	2.52941179
190.94139099	2.52941179
190.94549561	2.52941179
190.94979858	2.49019599
190.95378113	2.49019599
190.95777893	2.49019599
190.95777893	2.49019599
190.96192932	2.50980401
190.96620178	2.49019599
190.97023010	2.47058821
190.97023010	2.45098042
190.97419739	2.49019599
190.97842407	2.47058821
190.98269653	2.47058821
190.98660278	2.45098042
190.99058533	2.49019599
190.99467468	2.49019599
190.99893188	2.49019599
190.99893188	2.52941179
191.00309753	2.54901958
191.00724792	2.52941179
191.01123047	2.52941179
191.01579285	2.56862736
191.01945496	2.52941179
191.02352905	2.54901958
191.02760315	2.56862736
191.02760315	2.54901958
191.03161621	2.54901958
191.03572083	2.54901958
191.03991699	2.56862736
191.03991699	2.58823538
191.04388428	2.58823538
191.04811096	2.54901958
191.05203247	2.50980401
191.05613708	2.50980401
191.05613708	2.52941179
191.06022644	2.54901958
191.06463623	2.54901958
191.06849670	2.50980401
191.06849670	2.47058821
191.07266235	2.47058821
191.07667542	2.49019599
191.08091736	2.50980401
191.08518982	2.49019599
191.08518982	2.47058821
191.08888245	2.47058821
191.09297180	2.49019599
191.09724426	2.50980401
191.09724426	2.50980401
191.10121155	2.50980401
191.10530090	2.49019599
191.11000061	2.52941179
191.11380005	2.56862736
191.11380005	2.58823538
191.11756897	2.60784316
191.12167358	2.58823538
191.12586975	2.58823538
191.12586975	2.60784316
191.13009644	2.62745094
191.13407898	2.62745094
191.13809204	2.68627453
191.14213562	2.68627453
191.14213562	2.72549009
191.14656067	2.74509811
191.15054321	2.76470590
191.15452576	2.80392146
191.15452576	2.78431368
191.15856934	2.78431368
191.16270447	2.80392146
191.16685486	2.80392146
191.17089844	2.70588231
191.17495728	2.66666675
191.17901611	2.64705873
191.18330383	2.72549009
191.18330383	2.76470590
191.18725586	2.82352948
191.19132996	2.84313726
191.19540405	2.82352948
191.19967651	2.74509811
191.20375061	2.78431368
191.20788574	2.78431368
191.21194458	2.82352948
191.21194458	2.92156863
191.21604919	3.03921580
191.21995544	3.13725495
191.22422791	3.23529410
191.22824097	3.15686274
191.23249817	3.13725495
191.23637390	3.05882359
191.24046326	3.09803915
191.24046326	3.11764717
191.24453735	3.07843137
191.24877930	3.01960778
191.25289917	2.86274505
191.25289917	2.74509811
191.25689697	2.62745094
191.26107788	2.58823538
191.26518250	2.60784316
191.26931763	2.64705873
191.26931763	2.70588231
191.27354431	2.78431368
191.27729797	2.82352948
191.28155518	2.92156863
191.28155518	3.05882359
191.28570557	3.11764717
191.28979492	3.17647052
191.29383850	3.25490189
191.29795837	3.27450991
191.29795837	3.11764717
191.30189514	2.92156863
191.30598450	2.62745094
191.31011963	2.49019599
191.31011963	2.49019599
191.31430054	2.49019599
191.31832886	2.43137264
191.32241821	2.45098042
191.32675171	2.41176462
191.32675171	2.47058821
191.33091736	2.47058821
191.33465576	2.31372547
191.33880615	2.09803915
191.33880615	2.07843137
191.34288025	2.07843137
191.34706116	2.33333325
191.35108948	2.70588231
191.35533142	3.03921580
191.35533142	3.05882359
191.35925293	2.82352948
191.36375427	2.54901958
191.36749268	2.33333325
191.36749268	2.11764717
191.37152100	2.19607854
191.37562561	2.33333325
191.38020325	2.52941179
191.38392639	2.39215684
191.38798523	2.03921580
191.39204407	1.86274505
191.39662170	1.96078432
191.39662170	2.27450991
191.40040588	2.58823538
191.40428162	2.90196085
191.40856934	2.84313726
191.41250610	2.33333325
191.41673279	2.19607854
191.42083740	2.15686274
191.42481995	2.25490189
191.42481995	2.58823538
191.42886353	2.41176462
191.43315125	2.52941179
191.43710327	2.88235283
191.44113159	2.88235283
191.44531250	2.50980401
191.44960022	2.21568632
191.45356750	2.15686274
191.45356750	2.31372547
191.45771790	2.70588231
191.46176147	2.96078420
191.46583557	3.15686274
191.46583557	3.05882359
191.47004700	2.72549009
191.47396851	2.27450991
191.47816467	1.88235295
191.48223877	1.84313726
191.48223877	2.00000000
191.48622131	2.21568632
191.49057007	2.17647052
191.49446106	2.23529410
191.49446106	2.17647052
191.49868774	2.09803915
191.50256348	2.33333325
191.50685120	2.33333325
191.51095581	2.29411769
191.51095581	2.50980401
191.51539612	2.78431368
191.51913452	2.52941179
191.52326965	2.27450991
191.52326965	2.33333325
191.52735901	2.35294127
191.53138733	2.62745094
191.53536987	2.64705873
191.53944397	2.56862736
191.53944397	2.68627453
191.54383850	2.60784316
191.54794312	2.47058821
191.55180359	2.23529410
191.55180359	1.90196073
191.55587769	1.90196073
191.55998230	2.21568632
191.56427002	2.50980401
191.56816101	2.64705873
191.56816101	2.82352948
191.57229614	2.96078420
191.57647705	3.03921580
191.58056641	2.88235283
191.58056641	2.76470590
191.58500671	2.41176462
191.58908081	2.05882359
191.59306335	2.33333325
191.59693909	2.25490189
191.60104370	2.15686274
191.60504150	2.11764717
191.60923767	2.35294127
191.60923767	3.11764717
191.61329651	3.39215684
191.61743164	3.11764717
191.62144470	2.50980401
191.62553406	1.52941179
191.63032532	1.68627453
191.63421631	1.96078432
191.63821411	2.29411769
191.63821411	2.66666675
191.64212036	2.70588231
191.64637756	2.60784316
191.65049744	2.27450991
191.65049744	2.01960778
191.65446472	2.25490189
191.65849304	2.56862736
191.66253662	2.72549009
191.66677856	2.70588231
191.66677856	3.21568632
191.67066956	2.74509811
191.67465210	2.19607854
191.67880249	2.13725495
191.67880249	2.00000000
191.68304443	2.03921580
191.68698120	2.21568632
191.69110107	2.17647052
191.69520569	2.43137264
191.69520569	2.43137264
191.69934082	2.31372547
191.70330811	2.29411769
191.70753479	2.25490189
191.70753479	2.23529410
191.71163940	2.03921580
191.71568298	2.33333325
191.71990967	2.80392146
191.72402954	3.07843137
191.72402954	3.01960778
191.72817993	2.60784316
191.73210144	2.33333325
191.73616028	2.52941179
191.73616028	2.60784316
191.74020386	2.82352948
191.74429321	2.72549009
191.74877930	2.56862736
191.75245667	2.62745094
191.75245667	2.31372547
191.75657654	2.43137264
191.76087952	2.05882359
191.76490784	1.64705884
191.76490784	1.84313726
191.76927185	2.15686274
191.77304077	2.37254906
191.77719116	2.39215684
191.78123474	2.43137264
191.78529358	2.47058821
191.78932190	2.54901958
191.79356384	2.66666675
191.79356384	2.56862736
191.79771423	2.64705873
191.80194092	2.68627453
191.80589294	2.60784316
191.81011963	3.31372547
191.81443787	3.19607854
191.81866455	2.64705873
191.82244873	2.21568632
191.82244873	2.21568632
191.82662964	2.31372547
191.83042908	2.54901958
191.83447266	2.50980401
191.83879089	1.90196073
191.84262085	2.09803915
191.84681702	1.98039210
191.85090637	2.07843137
191.85090637	2.29411769
191.85505676	2.33333325
191.85935974	2.31372547
191.86317444	2.17647052
191.86317444	2.41176462
191.86730957	2.80392146
191.87129211	2.72549009
191.87539673	2.62745094
191.87960815	2.64705873
191.87960815	2.86274505
191.88386536	3.05882359
191.88801575	2.80392146
191.89190674	2.64705873
191.89190674	2.74509811
191.89587402	2.68627453
191.90016174	2.64705873
191.90425110	2.39215684
191.90855408	2.31372547
191.90855408	2.21568632
191.91224670	2.05882359
191.91648865	1.98039210
191.92065430	2.15686274
191.92065430	2.39215684
191.92456055	2.58823538
191.92861938	2.72549009
191.93293762	2.96078420
191.93685913	2.94117641
191.93685913	2.54901958
191.94088745	2.15686274
191.94519043	2.17647052
191.94929504	2.29411769
191.94929504	2.29411769
191.95364380	2.50980401
191.95727539	2.92156863
191.96163940	2.88235283
191.96586609	2.58823538
191.96586609	2.50980401
191.96977234	2.47058821
191.97381592	2.80392146
191.97799683	2.68627453
191.97799683	2.47058821
191.98202515	2.33333325
191.98606873	2.35294127
191.99032593	2.33333325
191.99441528	2.03921580
191.99879456	2.07843137
192.00274658	2.11764717
192.00659180	2.17647052
192.00659180	2.96078420
192.01084900	3.07843137
192.01509094	3.23529410
192.01881409	3.23529410
192.02282715	2.76470590
192.02729797	2.66666675
192.03115845	2.86274505
192.03527832	2.80392146
192.03527832	2.45098042
192.03918457	2.01960778
192.04331970	1.54901958
192.04750061	1.54901958
192.05168152	1.78431368
192.05575562	2.17647052
192.05989075	2.50980401
192.06391907	2.68627453
192.06391907	2.72549009
192.06816101	2.47058821
192.07221985	2.41176462
192.07626343	2.54901958
192.07626343	2.82352948
192.08024597	2.82352948
192.08447266	2.62745094
192.08857727	2.90196085
192.09288025	3.13725495
192.09288025	2.96078420
192.09683228	2.78431368
192.10090637	2.64705873
192.10490417	2.31372547
192.10490417	2.00000000
192.10910034	1.86274505
192.11361694	2.21568632
192.11718750	2.33333325
192.12139893	2.31372547
192.12139893	1.94117641
192.12527466	1.68627453
192.12934875	1.86274505
192.13357544	1.86274505
192.13357544	2.21568632
192.13768005	2.47058821
192.14170837	2.49019599
192.14593506	2.62745094
192.14996338	2.52941179
192.14996338	2.72549009
192.15432739	2.90196085
192.15821838	2.82352948
192.16220093	2.94117641
192.16220093	3.15686274
192.16627502	3.43137264
192.17031860	3.11764717
192.17449951	2.62745094
192.17858887	2.27450991
192.17858887	2.37254906
192.18310547	2.41176462
192.18690491	2.31372547
192.19102478	2.15686274
192.19102478	2.35294127
192.19511414	2.43137264
192.19914246	2.64705873
192.20327759	2.56862736
192.20736694	2.78431368
192.21150208	2.78431368
192.21549988	2.43137264
192.21965027	2.41176462
192.21965027	2.47058821
192.22372437	2.50980401
192.22770691	2.94117641
192.23228455	3.27450991
192.23600769	3.19607854
192.23995972	3.00000000
192.24427795	2.66666675
192.24832153	2.37254906
192.24832153	2.54901958
192.25245667	2.45098042
192.25637817	2.49019599
192.26081848	2.27450991
192.26473999	2.72549009
192.26882935	2.90196085
192.27288818	2.76470590
192.27732849	3.01960778
192.27732849	2.72549009
192.28108215	2.72549009
192.28504944	2.49019599
192.28929138	2.80392146
192.28929138	3.03921580
192.29319763	2.80392146
192.29734802	2.37254906
192.30166626	2.09803915
192.30552673	2.19607854
192.30552673	2.39215684
192.30957031	2.76470590
192.31385803	2.90196085
192.31784058	2.80392146
192.31784058	3.15686274
192.32211304	2.92156863
192.32611084	2.33333325
192.33013916	2.05882359
192.33424377	2.00000000
192.33424377	2.25490189
192.33868408	2.45098042
192.34240723	2.29411769
192.34652710	1.92156863
192.34652710	1.82352936
192.35055542	1.94117641
192.35462952	2.13725495
192.35887146	2.03921580
192.36300659	2.19607854
192.36300659	2.41176462
192.36706543	2.72549009
192.37103271	3.25490189
192.37513733	3.43137264
192.37513733	3.37254906
192.37951660	3.39215684
192.38362122	2.96078420
192.38763428	3.03921580
192.39167786	3.13725495
192.39167786	3.35294127
192.39561462	3.39215684
192.40003967	3.05882359
192.40382385	2.43137264
192.40382385	1.80392158
192.40806580	1.50980389
192.41195679	1.68627453
192.41668701	1.80392158
192.42050171	1.92156863
192.42431641	2.13725495
192.42839050	2.11764717
192.43275452	2.23529410
192.43275452	2.21568632
192.43667603	2.25490189
192.44076538	2.90196085
192.44479370	2.86274505
192.44898987	2.50980401
192.45294189	2.33333325
192.45706177	2.43137264
192.46124268	2.60784316
192.46124268	2.54901958
192.46542358	2.52941179
192.46955872	2.78431368
192.47349548	2.68627453
192.47349548	2.56862736
192.47753906	2.49019599
192.48240662	2.68627453
192.48576355	2.39215684
192.48986816	2.11764717
192.48986816	2.39215684
192.49394226	2.27450991
192.49815369	2.05882359
192.50209045	2.11764717
192.50209045	2.13725495
192.50617981	2.13725495
192.51039124	2.17647052
192.51484680	2.37254906
192.51856995	2.60784316
192.51856995	2.60784316
192.52262878	2.78431368
192.52682495	3.07843137
192.53097534	3.21568632
192.53097534	3.17647052
192.53485107	2.92156863
192.53904724	2.86274505
192.54339600	3.03921580
192.54743958	3.37254906
192.54743958	3.58823538
192.55130005	3.41176462
192.55537415	3.37254906
192.55950928	3.54901958
192.55950928	3.52941179
192.56367493	3.27450991
192.56777954	2.76470590
192.57182312	2.13725495
192.57614136	1.82352936
192.57614136	1.70588231
192.58030701	1.76470590
192.58425903	1.47058821
192.58837891	1.78431368
192.58837891	2.27450991
192.59226990	2.66666675
192.59658813	2.64705873
192.60047913	2.17647052
192.60453796	2.15686274
192.60891724	2.25490189
192.61276245	2.49019599
